Phone timestamp;sensor timestamp [ns];timestamp [ms];ecg [uV]
2024-09-16T12:17:22.570;599619607168277760;0.0;355
2024-09-16T12:17:22.577;599619607175970048;7.692288;985
2024-09-16T12:17:22.585;599619607183662336;15.384576;1739
2024-09-16T12:17:22.593;599619607191354624;23.076864;2158
2024-09-16T12:17:22.600;599619607199047040;30.76928;2457
2024-09-16T12:17:22.608;599619607206739328;38.461567;2856
2024-09-16T12:17:22.616;599619607214431616;46.153854;3185
2024-09-16T12:17:22.623;599619607222123904;53.846146;3428
2024-09-16T12:17:22.631;599619607229816192;61.538433;3683
2024-09-16T12:17:22.639;599619607237508480;69.23072;3919
2024-09-16T12:17:22.646;599619607245200896;76.923134;4109
2024-09-16T12:17:22.654;599619607252893184;84.615425;4292
2024-09-16T12:17:22.662;599619607260585472;92.30771;4474
2024-09-16T12:17:22.670;599619607268277760;100.0;4645
2024-09-16T12:17:22.677;599619607275970048;107.69229;4810
2024-09-16T12:17:22.685;599619607283662336;115.384575;4968
2024-09-16T12:17:22.693;599619607291354624;123.076866;5117
2024-09-16T12:17:22.700;599619607299047040;130.76929;5268
2024-09-16T12:17:22.708;599619607306739328;138.46156;5409
2024-09-16T12:17:22.716;599619607314431616;146.15385;5540
2024-09-16T12:17:22.723;599619607322123904;153.84615;5679
2024-09-16T12:17:22.731;599619607329816192;161.53844;5803
2024-09-16T12:17:22.739;599619607337508480;169.23071;5905
2024-09-16T12:17:22.746;599619607345200896;176.92314;6015
2024-09-16T12:17:22.754;599619607352893184;184.61542;6124
2024-09-16T12:17:22.762;599619607360585472;192.30771;6217
2024-09-16T12:17:22.770;599619607368277760;200.0;6304
2024-09-16T12:17:22.777;599619607375970048;207.69229;6389
2024-09-16T12:17:22.785;599619607383662336;215.38458;6465
2024-09-16T12:17:22.793;599619607391354624;223.07686;6540
2024-09-16T12:17:22.800;599619607399047040;230.76929;6611
2024-09-16T12:17:22.808;599619607406739328;238.46156;6672
2024-09-16T12:17:22.816;599619607414431616;246.15385;6742
2024-09-16T12:17:22.823;599619607422123904;253.84615;6796
2024-09-16T12:17:22.831;599619607429816192;261.53842;6827
2024-09-16T12:17:22.839;599619607437508480;269.2307;6881
2024-09-16T12:17:22.846;599619607445200896;276.92313;6937
2024-09-16T12:17:22.854;599619607452893184;284.61542;6966
2024-09-16T12:17:22.862;599619607460585472;292.3077;6995
2024-09-16T12:17:22.870;599619607468277760;300.0;7032
2024-09-16T12:17:22.877;599619607475970048;307.6923;7056
2024-09-16T12:17:22.885;599619607483662336;315.38458;7080
2024-09-16T12:17:22.893;599619607491354624;323.07687;7112
2024-09-16T12:17:22.900;599619607499047040;330.7693;7136
2024-09-16T12:17:22.908;599619607506739328;338.46158;7153
2024-09-16T12:17:22.916;599619607514431616;346.15387;7168
2024-09-16T12:17:22.923;599619607522123904;353.84613;7175
2024-09-16T12:17:22.931;599619607529816192;361.53842;7178
2024-09-16T12:17:22.939;599619607537508480;369.2307;7183
2024-09-16T12:17:22.946;599619607545200896;376.92313;7207
2024-09-16T12:17:22.954;599619607552893184;384.61542;7238
2024-09-16T12:17:22.962;599619607560585472;392.3077;7253
2024-09-16T12:17:22.970;599619607568277760;400.0;7238
2024-09-16T12:17:22.977;599619607575970048;407.6923;7224
2024-09-16T12:17:22.985;599619607583662336;415.38458;7204
2024-09-16T12:17:22.993;599619607591354624;423.07687;7180
2024-09-16T12:17:23.000;599619607599047040;430.7693;7165
2024-09-16T12:17:23.008;599619607606739328;438.46158;7148
2024-09-16T12:17:23.016;599619607614431616;446.15387;7127
2024-09-16T12:17:23.023;599619607622123904;453.84613;7114
2024-09-16T12:17:23.031;599619607629816192;461.53842;7100
2024-09-16T12:17:23.039;599619607637508480;469.2307;7085
2024-09-16T12:17:23.046;599619607645200896;476.92313;7063
2024-09-16T12:17:23.054;599619607652893184;484.61542;7029
2024-09-16T12:17:23.062;599619607660585472;492.3077;7010
2024-09-16T12:17:23.070;599619607668277760;500.0;7141
2024-09-16T12:17:23.077;599619607675970048;507.6923;7628
2024-09-16T12:17:23.085;599619607683662336;515.3846;8236
2024-09-16T12:17:23.093;599619607691354624;523.07684;8017
2024-09-16T12:17:23.100;599619607699047040;530.7693;6978
2024-09-16T12:17:23.108;599619607706739328;538.46155;6574
2024-09-16T12:17:23.116;599619607714431616;546.1539;6861
2024-09-16T12:17:23.123;599619607722123844;553.84607;6762
2024-09-16T12:17:23.131;599619607729798400;561.5206;6538
2024-09-16T12:17:23.139;599619607737472896;569.1951;6625
2024-09-16T12:17:23.146;599619607745147392;576.8696;6630
2024-09-16T12:17:23.154;599619607752821888;584.5441;6513
2024-09-16T12:17:23.162;599619607760496384;592.2186;6504
2024-09-16T12:17:23.169;599619607768171008;599.89325;6504
2024-09-16T12:17:23.177;599619607775845504;607.56775;6445
2024-09-16T12:17:23.185;599619607783520000;615.24225;6414
2024-09-16T12:17:23.192;599619607791194496;622.91675;6399
2024-09-16T12:17:23.200;599619607798868992;630.59125;6365
2024-09-16T12:17:23.208;599619607806543488;638.26575;6328
2024-09-16T12:17:23.215;599619607814217984;645.94025;6287
2024-09-16T12:17:23.223;599619607821892480;653.61475;6251
2024-09-16T12:17:23.231;599619607829566976;661.28925;6229
2024-09-16T12:17:23.238;599619607837241600;668.96387;6202
2024-09-16T12:17:23.246;599619607844916096;676.6383;6178
2024-09-16T12:17:23.254;599619607852590592;684.3128;6156
2024-09-16T12:17:23.261;599619607860265088;691.9873;6124
2024-09-16T12:17:23.269;599619607867939584;699.6618;6090
2024-09-16T12:17:23.277;599619607875614080;707.3363;6068
2024-09-16T12:17:23.285;599619607883288576;715.0108;6044
2024-09-16T12:17:23.292;599619607890963072;722.6853;6015
2024-09-16T12:17:23.300;599619607898637696;730.3599;5980
2024-09-16T12:17:23.308;599619607906312192;738.0344;5939
2024-09-16T12:17:23.315;599619607913986688;745.7089;5895
2024-09-16T12:17:23.323;599619607921661184;753.3834;5844
2024-09-16T12:17:23.331;599619607929335680;761.0579;5783
2024-09-16T12:17:23.338;599619607937010176;768.7324;5703
2024-09-16T12:17:23.346;599619607944684672;776.4069;5620
2024-09-16T12:17:23.354;599619607952359168;784.0814;5540
2024-09-16T12:17:23.361;599619607960033664;791.7559;5467
2024-09-16T12:17:23.369;599619607967708288;799.43054;5399
2024-09-16T12:17:23.377;599619607975382784;807.10504;5333
2024-09-16T12:17:23.384;599619607983057280;814.77954;5270
2024-09-16T12:17:23.392;599619607990731776;822.45404;5219
2024-09-16T12:17:23.400;599619607998406272;830.12854;5170
2024-09-16T12:17:23.407;599619608006080768;837.803;5114
2024-09-16T12:17:23.415;599619608013755264;845.4775;5068
2024-09-16T12:17:23.423;599619608021429760;853.152;5027
2024-09-16T12:17:23.430;599619608029104256;860.8265;4983
2024-09-16T12:17:23.438;599619608036778880;868.5011;4937
2024-09-16T12:17:23.446;599619608044453376;876.1756;4900
2024-09-16T12:17:23.453;599619608052127872;883.8501;4861
2024-09-16T12:17:23.461;599619608059802368;891.5246;4817
2024-09-16T12:17:23.469;599619608067476864;899.1991;4783
2024-09-16T12:17:23.476;599619608075151360;906.8736;4752
2024-09-16T12:17:23.484;599619608082825856;914.5481;4705
2024-09-16T12:17:23.492;599619608090500352;922.2226;4657
2024-09-16T12:17:23.499;599619608098174848;929.8971;4611
2024-09-16T12:17:23.507;599619608105849472;937.5717;4569
2024-09-16T12:17:23.515;599619608113523968;945.2462;4533
2024-09-16T12:17:23.522;599619608121198464;952.9207;4496
2024-09-16T12:17:23.530;599619608128872960;960.5952;4460
2024-09-16T12:17:23.538;599619608136547456;968.2697;4423
2024-09-16T12:17:23.545;599619608144221952;975.9442;4387
2024-09-16T12:17:23.553;599619608151896448;983.6187;4350
2024-09-16T12:17:23.561;599619608159570944;991.2932;4319
2024-09-16T12:17:23.568;599619608167245440;998.96765;4280
2024-09-16T12:17:23.576;599619608174920064;1006.64233;4229
2024-09-16T12:17:23.584;599619608182594560;1014.3168;4173
2024-09-16T12:17:23.591;599619608190269056;1021.9913;4124
2024-09-16T12:17:23.599;599619608197943552;1029.6658;4073
2024-09-16T12:17:23.607;599619608205618048;1037.3403;4014
2024-09-16T12:17:23.615;599619608213292544;1045.0148;3961
2024-09-16T12:17:23.622;599619608220967040;1052.6893;3924
2024-09-16T12:17:23.630;599619608228641536;1060.3638;3905
2024-09-16T12:17:23.638;599619608236316160;1068.0385;3888
2024-09-16T12:17:23.645;599619608243990656;1075.7129;3854
2024-09-16T12:17:23.653;599619608251665152;1083.3875;3798
2024-09-16T12:17:23.661;599619608259339648;1091.0619;3735
2024-09-16T12:17:23.668;599619608267014144;1098.7363;3666
2024-09-16T12:17:23.676;599619608274688640;1106.4109;3623
2024-09-16T12:17:23.684;599619608282363116;1114.0853;3589
2024-09-16T12:17:23.691;599619608290037632;1121.7599;3552
2024-09-16T12:17:23.699;599619608297712128;1129.4343;3511
2024-09-16T12:17:23.707;599619608305386496;1137.1088;3472
2024-09-16T12:17:23.714;599619608313060992;1144.7832;3433
2024-09-16T12:17:23.722;599619608320735360;1152.4576;3396
2024-09-16T12:17:23.730;599619608328409856;1160.1321;3360
2024-09-16T12:17:23.737;599619608336084224;1167.8065;3321
2024-09-16T12:17:23.745;599619608343758720;1175.481;3355
2024-09-16T12:17:23.753;599619608351433216;1183.1554;3705
2024-09-16T12:17:23.760;599619608359107584;1190.8298;4418
2024-09-16T12:17:23.768;599619608366782080;1198.5043;4625
2024-09-16T12:17:23.776;599619608374456448;1206.1787;3662
2024-09-16T12:17:23.783;599619608382130944;1213.8531;2807
2024-09-16T12:17:23.791;599619608389805312;1221.5276;2997
2024-09-16T12:17:23.799;599619608397479808;1229.202;3138
2024-09-16T12:17:23.806;599619608405154304;1236.8766;2851
2024-09-16T12:17:23.814;599619608412828672;1244.5509;2825
2024-09-16T12:17:23.822;599619608420503168;1252.2255;2922
2024-09-16T12:17:23.829;599619608428177536;1259.8998;2827
2024-09-16T12:17:23.837;599619608435852032;1267.5742;2771
2024-09-16T12:17:23.845;599619608443526400;1275.2487;2793
2024-09-16T12:17:23.852;599619608451200896;1282.9231;2756
2024-09-16T12:17:23.860;599619608458875392;1290.5977;2720
2024-09-16T12:17:23.868;599619608466549760;1298.272;2715
2024-09-16T12:17:23.875;599619608474224256;1305.9465;2698
2024-09-16T12:17:23.883;599619608481898624;1313.6208;2676
2024-09-16T12:17:23.891;599619608489573120;1321.2954;2664
2024-09-16T12:17:23.898;599619608497247488;1328.9697;2649
2024-09-16T12:17:23.906;599619608504921984;1336.6442;2630
2024-09-16T12:17:23.914;599619608512596480;1344.3187;2618
2024-09-16T12:17:23.921;599619608520270848;1351.993;2603
2024-09-16T12:17:23.929;599619608527945344;1359.6676;2584
2024-09-16T12:17:23.937;599619608535619712;1367.3419;2569
2024-09-16T12:17:23.945;599619608543294208;1375.0165;2559
2024-09-16T12:17:23.952;599619608550968576;1382.6908;2550
2024-09-16T12:17:23.960;599619608558643072;1390.3654;2535
2024-09-16T12:17:23.968;599619608566317568;1398.0398;2520
2024-09-16T12:17:23.975;599619608573991936;1405.7142;2501
2024-09-16T12:17:23.983;599619608581666432;1413.3887;2474
2024-09-16T12:17:23.991;599619608589340800;1421.063;2447
2024-09-16T12:17:23.998;599619608597015296;1428.7375;2416
2024-09-16T12:17:24.006;599619608604689664;1436.4119;2377
2024-09-16T12:17:24.014;599619608612364160;1444.0864;2328
2024-09-16T12:17:24.021;599619608620038528;1451.7607;2265
2024-09-16T12:17:24.029;599619608627713024;1459.4353;2199
2024-09-16T12:17:24.037;599619608635387520;1467.1097;2141
2024-09-16T12:17:24.044;599619608643061888;1474.7842;2087
2024-09-16T12:17:24.052;599619608650736384;1482.4586;2039
2024-09-16T12:17:24.060;599619608658410752;1490.1329;1997
2024-09-16T12:17:24.067;599619608666085248;1497.8075;1966
2024-09-16T12:17:24.075;599619608673759616;1505.4818;1939
2024-09-16T12:17:24.083;599619608681434112;1513.1564;1914
2024-09-16T12:17:24.090;599619608689108608;1520.8308;1893
2024-09-16T12:17:24.098;599619608696782976;1528.5052;1878
2024-09-16T12:17:24.106;599619608704457472;1536.1797;1859
2024-09-16T12:17:24.113;599619608712131840;1543.8541;1837
2024-09-16T12:17:24.121;599619608719806336;1551.5286;1822
2024-09-16T12:17:24.129;599619608727480704;1559.203;1810
2024-09-16T12:17:24.136;599619608735155200;1566.8774;1790
2024-09-16T12:17:24.144;599619608742829696;1574.5519;1776
2024-09-16T12:17:24.152;599619608750504064;1582.2263;1764
2024-09-16T12:17:24.159;599619608758178560;1589.9008;1747
2024-09-16T12:17:24.167;599619608765852928;1597.5752;1727
2024-09-16T12:17:24.175;599619608773527424;1605.2496;1710
2024-09-16T12:17:24.182;599619608781201792;1612.9241;1691
2024-09-16T12:17:24.190;599619608788876288;1620.5985;1674
2024-09-16T12:17:24.198;599619608796550784;1628.2731;1654
2024-09-16T12:17:24.205;599619608804225152;1635.9474;1630
2024-09-16T12:17:24.213;599619608811899648;1643.622;1610
2024-09-16T12:17:24.221;599619608819574016;1651.2963;1593
2024-09-16T12:17:24.228;599619608827248512;1658.9707;1579
2024-09-16T12:17:24.236;599619608834922880;1666.6451;1559
2024-09-16T12:17:24.244;599619608842597301;1674.3195;1535
2024-09-16T12:17:24.251;599619608850271744;1681.994;1511
2024-09-16T12:17:24.259;599619608857946240;1689.6685;1496
2024-09-16T12:17:24.267;599619608865620608;1697.3429;1486
2024-09-16T12:17:24.275;599619608873295104;1705.0173;1469
2024-09-16T12:17:24.282;599619608880969472;1712.6918;1450
2024-09-16T12:17:24.290;599619608888643968;1720.3662;1433
2024-09-16T12:17:24.298;599619608896318336;1728.0405;1411
2024-09-16T12:17:24.305;599619608903992832;1735.7151;1389
2024-09-16T12:17:24.313;599619608911667328;1743.3895;1372
2024-09-16T12:17:24.321;599619608919341696;1751.064;1365
2024-09-16T12:17:24.328;599619608927016192;1758.7384;1372
2024-09-16T12:17:24.336;599619608934690560;1766.4128;1384
2024-09-16T12:17:24.344;599619608942365056;1774.0873;1379
2024-09-16T12:17:24.351;599619608950039424;1781.7617;1352
2024-09-16T12:17:24.359;599619608957713920;1789.4362;1326
2024-09-16T12:17:24.367;599619608965388416;1797.1106;1301
2024-09-16T12:17:24.374;599619608973062784;1804.785;1275
2024-09-16T12:17:24.382;599619608980737280;1812.4595;1248
2024-09-16T12:17:24.390;599619608988411648;1820.1339;1228
2024-09-16T12:17:24.397;599619608996086144;1827.8083;1216
2024-09-16T12:17:24.405;599619609003760512;1835.4828;1204
2024-09-16T12:17:24.413;599619609011435008;1843.1572;1192
2024-09-16T12:17:24.420;599619609019109504;1850.8318;1182
2024-09-16T12:17:24.428;599619609026783872;1858.5061;1167
2024-09-16T12:17:24.436;599619609034458368;1866.1807;1138
2024-09-16T12:17:24.443;599619609042132736;1873.855;1133
2024-09-16T12:17:24.451;599619609049807232;1881.5294;1330
2024-09-16T12:17:24.459;599619609057481600;1889.2039;1912
2024-09-16T12:17:24.466;599619609065156096;1896.8783;2486
2024-09-16T12:17:24.474;599619609072830592;1904.5529;2121
2024-09-16T12:17:24.482;599619609080504960;1912.2272;1124
2024-09-16T12:17:24.489;599619609088179456;1919.9017;871
2024-09-16T12:17:24.497;599619609095853824;1927.576;1119
2024-09-16T12:17:24.505;599619609103528320;1935.2506;975
2024-09-16T12:17:24.512;599619609111202688;1942.9249;849
2024-09-16T12:17:24.520;599619609118877184;1950.5994;968
2024-09-16T12:17:24.528;599619609126551680;1958.2739;961
2024-09-16T12:17:24.535;599619609134226048;1965.9482;890
2024-09-16T12:17:24.543;599619609141900544;1973.6228;919
2024-09-16T12:17:24.551;599619609149574912;1981.2971;931
2024-09-16T12:17:24.558;599619609157249408;1988.9717;905
2024-09-16T12:17:24.566;599619609164923776;1996.646;902
2024-09-16T12:17:24.574;599619609172598272;2004.3206;910
2024-09-16T12:17:24.581;599619609180272640;2011.9949;907
2024-09-16T12:17:24.589;599619609187947136;2019.6694;907
2024-09-16T12:17:24.597;599619609195621632;2027.3439;910
2024-09-16T12:17:24.605;599619609203296000;2035.0182;905
2024-09-16T12:17:24.612;599619609210970496;2042.6927;905
2024-09-16T12:17:24.620;599619609218644864;2050.3672;907
2024-09-16T12:17:24.628;599619609226319360;2058.0415;914
2024-09-16T12:17:24.635;599619609233993728;2065.716;917
2024-09-16T12:17:24.643;599619609241668224;2073.3904;924
2024-09-16T12:17:24.651;599619609249342720;2081.065;931
2024-09-16T12:17:24.658;599619609257017088;2088.7393;941
2024-09-16T12:17:24.666;599619609264691584;2096.4138;946
2024-09-16T12:17:24.674;599619609272365952;2104.0881;953
2024-09-16T12:17:24.681;599619609280040448;2111.7627;956
2024-09-16T12:17:24.689;599619609287714816;2119.437;953
2024-09-16T12:17:24.697;599619609295389312;2127.1116;941
2024-09-16T12:17:24.704;599619609303063808;2134.7861;929
2024-09-16T12:17:24.712;599619609310738176;2142.4604;910
2024-09-16T12:17:24.720;599619609318412672;2150.1348;875
2024-09-16T12:17:24.727;599619609326087040;2157.809;832
2024-09-16T12:17:24.735;599619609333761536;2165.484;785
2024-09-16T12:17:24.743;599619609341435904;2173.1582;744
2024-09-16T12:17:24.750;599619609349110400;2180.8328;708
2024-09-16T12:17:24.758;599619609356784896;2188.507;681
2024-09-16T12:17:24.766;599619609364459264;2196.1814;661
2024-09-16T12:17:24.773;599619609372133760;2203.856;649
2024-09-16T12:17:24.781;599619609379808128;2211.5303;642
2024-09-16T12:17:24.789;599619609387482624;2219.2048;632
2024-09-16T12:17:24.796;599619609395156992;2226.8792;625
2024-09-16T12:17:24.804;599619609402831486;2234.5537;620
2024-09-16T12:17:24.812;599619609410505984;2242.2283;618
2024-09-16T12:17:24.819;599619609418180480;2249.9026;615
2024-09-16T12:17:24.827;599619609425854976;2257.5771;613
2024-09-16T12:17:24.835;599619609433529472;2265.252;610
2024-09-16T12:17:24.842;599619609441203968;2272.9263;608
2024-09-16T12:17:24.850;599619609448878592;2280.6008;605
2024-09-16T12:17:24.858;599619609456553088;2288.2754;605
2024-09-16T12:17:24.865;599619609464227584;2295.9497;608
2024-09-16T12:17:24.873;599619609471902080;2303.6243;601
2024-09-16T12:17:24.881;599619609479576576;2311.2988;591
2024-09-16T12:17:24.888;599619609487251072;2318.9734;591
2024-09-16T12:17:24.896;599619609494925568;2326.6477;586
2024-09-16T12:17:24.904;599619609502600064;2334.3223;581
2024-09-16T12:17:24.911;599619609510274560;2341.9968;576
2024-09-16T12:17:24.919;599619609517949184;2349.6714;569
2024-09-16T12:17:24.927;599619609525623680;2357.3457;564
2024-09-16T12:17:24.935;599619609533298176;2365.0205;559
2024-09-16T12:17:24.942;599619609540972672;2372.695;552
2024-09-16T12:17:24.950;599619609548647168;2380.3694;549
2024-09-16T12:17:24.958;599619609556321664;2388.0437;545
2024-09-16T12:17:24.965;599619609563996160;2395.7185;537
2024-09-16T12:17:24.973;599619609571670656;2403.393;532
2024-09-16T12:17:24.981;599619609579345152;2411.0674;532
2024-09-16T12:17:24.988;599619609587019776;2418.742;530
2024-09-16T12:17:24.996;599619609594694272;2426.4167;525
2024-09-16T12:17:25.004;599619609602368768;2434.091;525
2024-09-16T12:17:25.011;599619609610043264;2441.7654;518
2024-09-16T12:17:25.019;599619609617717760;2449.44;508
2024-09-16T12:17:25.027;599619609625392256;2457.1145;508
2024-09-16T12:17:25.034;599619609633066752;2464.789;523
2024-09-16T12:17:25.042;599619609640741248;2472.4634;547
2024-09-16T12:17:25.050;599619609648415872;2480.1382;552
2024-09-16T12:17:25.057;599619609656090368;2487.8125;537
2024-09-16T12:17:25.065;599619609663764864;2495.487;518
2024-09-16T12:17:25.073;599619609671439360;2503.1616;496
2024-09-16T12:17:25.080;599619609679113856;2510.8362;479
2024-09-16T12:17:25.088;599619609686788352;2518.5105;472
2024-09-16T12:17:25.096;599619609694462848;2526.185;462
2024-09-16T12:17:25.103;599619609702137344;2533.8596;457
2024-09-16T12:17:25.111;599619609709811840;2541.5342;457
2024-09-16T12:17:25.119;599619609717486464;2549.2085;455
2024-09-16T12:17:25.126;599619609725160960;2556.8833;452
2024-09-16T12:17:25.134;599619609732835456;2564.5579;447
2024-09-16T12:17:25.142;599619609740509952;2572.2322;428
2024-09-16T12:17:25.149;599619609748184448;2579.9065;437
2024-09-16T12:17:25.157;599619609755858944;2587.5813;666
2024-09-16T12:17:25.165;599619609763533440;2595.2559;1265
2024-09-16T12:17:25.172;599619609771207936;2602.9302;1786
2024-09-16T12:17:25.180;599619609778882432;2610.6045;1340
2024-09-16T12:17:25.188;599619609786557056;2618.2795;377
2024-09-16T12:17:25.195;599619609794231552;2625.9539;218
2024-09-16T12:17:25.203;599619609801906048;2633.6282;484
2024-09-16T12:17:25.211;599619609809580544;2641.3027;333
2024-09-16T12:17:25.218;599619609817255040;2648.9773;231
2024-09-16T12:17:25.226;599619609824929536;2656.6519;362
2024-09-16T12:17:25.234;599619609832604032;2664.3262;352
2024-09-16T12:17:25.242;599619609840278528;2672.0007;291
2024-09-16T12:17:25.249;599619609847953024;2679.6753;333
2024-09-16T12:17:25.257;599619609855627648;2687.3499;352
2024-09-16T12:17:25.265;599619609863302144;2695.0244;330
2024-09-16T12:17:25.272;599619609870976640;2702.699;340
2024-09-16T12:17:25.280;599619609878651136;2710.3733;355
2024-09-16T12:17:25.288;599619609886325632;2718.0479;355
2024-09-16T12:17:25.295;599619609894000128;2725.7224;360
2024-09-16T12:17:25.303;599619609901674624;2733.397;372
2024-09-16T12:17:25.311;599619609909349120;2741.0713;379
2024-09-16T12:17:25.318;599619609917023616;2748.7458;386
2024-09-16T12:17:25.326;599619609924698240;2756.4207;399
2024-09-16T12:17:25.334;599619609932372736;2764.095;408
2024-09-16T12:17:25.341;599619609940047232;2771.7693;420
2024-09-16T12:17:25.349;599619609947721728;2779.4438;437
2024-09-16T12:17:25.357;599619609955396224;2787.1187;450
2024-09-16T12:17:25.364;599619609963070754;2794.793;459
2024-09-16T12:17:25.372;599619609970745472;2802.4678;472
2024-09-16T12:17:25.380;599619609978420224;2810.1426;479
2024-09-16T12:17:25.387;599619609986095104;2817.8174;484
2024-09-16T12:17:25.395;599619609993769856;2825.492;481
2024-09-16T12:17:25.403;599619610001444608;2833.1667;476
2024-09-16T12:17:25.410;599619610009119360;2840.8418;467
2024-09-16T12:17:25.418;599619610016794240;2848.5166;445
2024-09-16T12:17:25.426;599619610024468992;2856.1912;418
2024-09-16T12:17:25.433;599619610032143744;2863.866;386
2024-09-16T12:17:25.441;599619610039818624;2871.5408;347
2024-09-16T12:17:25.449;599619610047493376;2879.2156;311
2024-09-16T12:17:25.456;599619610055168128;2886.8904;284
2024-09-16T12:17:25.464;599619610062842880;2894.5652;262
2024-09-16T12:17:25.472;599619610070517760;2902.24;250
2024-09-16T12:17:25.479;599619610078192512;2909.9146;245
2024-09-16T12:17:25.487;599619610085867264;2917.5896;243
2024-09-16T12:17:25.495;599619610093542144;2925.2644;236
2024-09-16T12:17:25.502;599619610101216896;2932.9392;233
2024-09-16T12:17:25.510;599619610108891648;2940.6138;236
2024-09-16T12:17:25.518;599619610116566528;2948.2888;240
2024-09-16T12:17:25.525;599619610124241280;2955.9634;243
2024-09-16T12:17:25.533;599619610131916032;2963.6382;240
2024-09-16T12:17:25.541;599619610139590784;2971.3132;243
2024-09-16T12:17:25.548;599619610147265664;2978.988;253
2024-09-16T12:17:25.556;599619610154940416;2986.6626;255
2024-09-16T12:17:25.564;599619610162615168;2994.3372;250
2024-09-16T12:17:25.572;599619610170290048;3002.0122;255
2024-09-16T12:17:25.579;599619610177964800;3009.687;262
2024-09-16T12:17:25.587;599619610185639552;3017.3618;260
2024-09-16T12:17:25.595;599619610193314304;3025.0366;253
2024-09-16T12:17:25.602;599619610200989184;3032.7114;253
2024-09-16T12:17:25.610;599619610208663936;3040.386;257
2024-09-16T12:17:25.618;599619610216338688;3048.061;260
2024-09-16T12:17:25.625;599619610224013568;3055.7358;260
2024-09-16T12:17:25.633;599619610231688320;3063.4106;250
2024-09-16T12:17:25.641;599619610239363072;3071.0852;240
2024-09-16T12:17:25.648;599619610247037824;3078.76;245
2024-09-16T12:17:25.656;599619610254712704;3086.4348;248
2024-09-16T12:17:25.664;599619610262387456;3094.1096;243
2024-09-16T12:17:25.671;599619610270062208;3101.7847;243
2024-09-16T12:17:25.679;599619610277737088;3109.4595;240
2024-09-16T12:17:25.687;599619610285411840;3117.134;238
2024-09-16T12:17:25.694;599619610293086592;3124.8086;240
2024-09-16T12:17:25.702;599619610300761472;3132.4836;236
2024-09-16T12:17:25.710;599619610308436224;3140.1584;228
2024-09-16T12:17:25.717;599619610316110976;3147.8333;233
2024-09-16T12:17:25.725;599619610323785728;3155.508;231
2024-09-16T12:17:25.733;599619610331460608;3163.1829;221
2024-09-16T12:17:25.740;599619610339135360;3170.8574;221
2024-09-16T12:17:25.748;599619610346810112;3178.5325;240
2024-09-16T12:17:25.756;599619610354484992;3186.2073;267
2024-09-16T12:17:25.763;599619610362159744;3193.882;282
2024-09-16T12:17:25.771;599619610369834496;3201.5566;270
2024-09-16T12:17:25.779;599619610377509248;3209.2314;257
2024-09-16T12:17:25.786;599619610385184128;3216.9062;243
2024-09-16T12:17:25.794;599619610392858880;3224.581;226
2024-09-16T12:17:25.802;599619610400533632;3232.256;223
2024-09-16T12:17:25.809;599619610408208512;3239.931;221
2024-09-16T12:17:25.817;599619610415883264;3247.6055;211
2024-09-16T12:17:25.825;599619610423558016;3255.28;209
2024-09-16T12:17:25.832;599619610431232768;3262.955;216
2024-09-16T12:17:25.840;599619610438907648;3270.63;218
2024-09-16T12:17:25.848;599619610446582400;3278.3047;218
2024-09-16T12:17:25.855;599619610454257152;3285.9795;211
2024-09-16T12:17:25.863;599619610461932032;3293.6543;197
2024-09-16T12:17:25.871;599619610469606784;3301.3289;279
2024-09-16T12:17:25.879;599619610477281536;3309.0037;695
2024-09-16T12:17:25.886;599619610484956416;3316.6787;1408
2024-09-16T12:17:25.894;599619610492631168;3324.3535;1540
2024-09-16T12:17:25.902;599619610500305920;3332.028;603
2024-09-16T12:17:25.909;599619610507980672;3339.703;-94
2024-09-16T12:17:25.917;599619610515655552;3347.3777;163
2024-09-16T12:17:25.925;599619610523330374;3355.0525;287
2024-09-16T12:17:25.932;599619610531004928;3362.727;34
2024-09-16T12:17:25.940;599619610538679424;3370.4019;63
2024-09-16T12:17:25.948;599619610546353792;3378.0762;175
2024-09-16T12:17:25.955;599619610554028288;3385.7505;107
2024-09-16T12:17:25.963;599619610561702656;3393.4248;97
2024-09-16T12:17:25.971;599619610569377152;3401.0994;155
2024-09-16T12:17:25.978;599619610577051520;3408.7737;148
2024-09-16T12:17:25.986;599619610584726016;3416.4482;136
2024-09-16T12:17:25.994;599619610592400512;3424.1228;153
2024-09-16T12:17:26.001;599619610600074880;3431.7974;158
2024-09-16T12:17:26.009;599619610607749376;3439.4717;163
2024-09-16T12:17:26.017;599619610615423744;3447.146;177
2024-09-16T12:17:26.024;599619610623098240;3454.8203;182
2024-09-16T12:17:26.032;599619610630772608;3462.4946;187
2024-09-16T12:17:26.040;599619610638447104;3470.1694;201
2024-09-16T12:17:26.047;599619610646121600;3477.844;218
2024-09-16T12:17:26.055;599619610653795968;3485.5183;226
2024-09-16T12:17:26.063;599619610661470464;3493.1926;240
2024-09-16T12:17:26.070;599619610669144832;3500.8672;265
2024-09-16T12:17:26.078;599619610676819328;3508.5415;284
2024-09-16T12:17:26.086;599619610684493696;3516.2158;301
2024-09-16T12:17:26.093;599619610692168192;3523.8904;318
2024-09-16T12:17:26.101;599619610699842688;3531.565;321
2024-09-16T12:17:26.109;599619610707517056;3539.2395;323
2024-09-16T12:17:26.116;599619610715191552;3546.9138;330
2024-09-16T12:17:26.124;599619610722865920;3554.5881;326
2024-09-16T12:17:26.132;599619610730540416;3562.2625;311
2024-09-16T12:17:26.139;599619610738214784;3569.937;289
2024-09-16T12:17:26.147;599619610745889280;3577.6116;257
2024-09-16T12:17:26.155;599619610753563776;3585.2861;221
2024-09-16T12:17:26.162;599619610761238144;3592.9604;184
2024-09-16T12:17:26.170;599619610768912640;3600.6348;150
2024-09-16T12:17:26.178;599619610776587008;3608.3093;121
2024-09-16T12:17:26.185;599619610784261504;3615.9836;104
2024-09-16T12:17:26.193;599619610791935872;3623.658;97
2024-09-16T12:17:26.201;599619610799610368;3631.3325;94
2024-09-16T12:17:26.209;599619610807284864;3639.0073;92
2024-09-16T12:17:26.216;599619610814959232;3646.6816;90
2024-09-16T12:17:26.224;599619610822633728;3654.356;92
2024-09-16T12:17:26.232;599619610830308096;3662.0303;99
2024-09-16T12:17:26.239;599619610837982592;3669.7046;107
2024-09-16T12:17:26.247;599619610845656960;3677.3792;109
2024-09-16T12:17:26.255;599619610853331456;3685.0537;116
2024-09-16T12:17:26.262;599619610861005824;3692.728;126
2024-09-16T12:17:26.270;599619610868680320;3700.4026;124
2024-09-16T12:17:26.278;599619610876354816;3708.0771;121
2024-09-16T12:17:26.285;599619610884029184;3715.7515;128
2024-09-16T12:17:26.293;599619610891703680;3723.4258;131
2024-09-16T12:17:26.301;599619610899378048;3731.1;126
2024-09-16T12:17:26.308;599619610907052544;3738.775;128
2024-09-16T12:17:26.316;599619610914726912;3746.4492;133
2024-09-16T12:17:26.324;599619610922401408;3754.1238;126
2024-09-16T12:17:26.331;599619610930075904;3761.798;116
2024-09-16T12:17:26.339;599619610937750272;3769.4724;121
2024-09-16T12:17:26.347;599619610945424768;3777.147;126
2024-09-16T12:17:26.354;599619610953099136;3784.8213;119
2024-09-16T12:17:26.362;599619610960773632;3792.4958;111
2024-09-16T12:17:26.370;599619610968448000;3800.1702;116
2024-09-16T12:17:26.377;599619610976122496;3807.845;121
2024-09-16T12:17:26.385;599619610983796992;3815.5193;119
2024-09-16T12:17:26.393;599619610991471360;3823.1936;121
2024-09-16T12:17:26.400;599619610999145856;3830.868;124
2024-09-16T12:17:26.408;599619611006820224;3838.5422;121
2024-09-16T12:17:26.416;599619611014494720;3846.217;119
2024-09-16T12:17:26.423;599619611022169088;3853.8914;119
2024-09-16T12:17:26.431;599619611029843584;3861.566;121
2024-09-16T12:17:26.439;599619611037518080;3869.2402;128
2024-09-16T12:17:26.446;599619611045192448;3876.9148;150
2024-09-16T12:17:26.454;599619611052866944;3884.589;172
2024-09-16T12:17:26.462;599619611060541312;3892.2634;175
2024-09-16T12:17:26.469;599619611068215808;3899.938;167
2024-09-16T12:17:26.477;599619611075890176;3907.6123;153
2024-09-16T12:17:26.485;599619611083564559;3915.2869;131
2024-09-16T12:17:26.492;599619611091239040;3922.9614;121
2024-09-16T12:17:26.500;599619611098913536;3930.6357;119
2024-09-16T12:17:26.508;599619611106587904;3938.31;111
2024-09-16T12:17:26.515;599619611114262400;3945.9846;109
2024-09-16T12:17:26.523;599619611121936768;3953.659;111
2024-09-16T12:17:26.531;599619611129611264;3961.3335;114
2024-09-16T12:17:26.539;599619611137285632;3969.0078;119
2024-09-16T12:17:26.546;599619611144960128;3976.6826;116
2024-09-16T12:17:26.554;599619611152634624;3984.357;99
2024-09-16T12:17:26.562;599619611160308992;3992.0312;136
2024-09-16T12:17:26.569;599619611167983488;3999.7056;445
2024-09-16T12:17:26.577;599619611175657856;4007.38;1146
2024-09-16T12:17:26.585;599619611183332352;4015.0547;1596
2024-09-16T12:17:26.592;599619611191006720;4022.729;910
2024-09-16T12:17:26.600;599619611198681216;4030.4036;-85
2024-09-16T12:17:26.608;599619611206355712;4038.078;-72
2024-09-16T12:17:26.615;599619611214030080;4045.7524;206
2024-09-16T12:17:26.623;599619611221704576;4053.4268;-9
2024-09-16T12:17:26.631;599619611229378944;4061.101;-77
2024-09-16T12:17:26.638;599619611237053440;4068.7756;70
2024-09-16T12:17:26.646;599619611244727808;4076.45;36
2024-09-16T12:17:26.654;599619611252402304;4084.1248;-12
2024-09-16T12:17:26.661;599619611260076800;4091.799;46
2024-09-16T12:17:26.669;599619611267751168;4099.4736;63
2024-09-16T12:17:26.677;599619611275425664;4107.148;46
2024-09-16T12:17:26.684;599619611283100032;4114.8223;68
2024-09-16T12:17:26.692;599619611290774528;4122.4966;85
2024-09-16T12:17:26.700;599619611298448896;4130.171;87
2024-09-16T12:17:26.707;599619611306123392;4137.8457;97
2024-09-16T12:17:26.715;599619611313797888;4145.52;111
2024-09-16T12:17:26.723;599619611321472256;4153.1943;121
2024-09-16T12:17:26.730;599619611329146752;4160.8687;133
2024-09-16T12:17:26.738;599619611336821120;4168.5435;145
2024-09-16T12:17:26.746;599619611344495616;4176.218;158
2024-09-16T12:17:26.753;599619611352169984;4183.892;172
2024-09-16T12:17:26.761;599619611359844480;4191.567;189
2024-09-16T12:17:26.769;599619611367518976;4199.241;206
2024-09-16T12:17:26.776;599619611375193344;4206.9155;223
2024-09-16T12:17:26.784;599619611382867840;4214.59;240
2024-09-16T12:17:26.792;599619611390542208;4222.264;253
2024-09-16T12:17:26.799;599619611398216704;4229.939;260
2024-09-16T12:17:26.807;599619611405891072;4237.6133;262
2024-09-16T12:17:26.815;599619611413565568;4245.288;260
2024-09-16T12:17:26.822;599619611421239936;4252.9624;250
2024-09-16T12:17:26.830;599619611428914432;4260.6367;233
2024-09-16T12:17:26.838;599619611436588928;4268.311;206
2024-09-16T12:17:26.845;599619611444263296;4275.9854;167
2024-09-16T12:17:26.853;599619611451937792;4283.66;128
2024-09-16T12:17:26.861;599619611459612160;4291.3345;97
2024-09-16T12:17:26.869;599619611467286656;4299.009;70
2024-09-16T12:17:26.876;599619611474961024;4306.6836;53
2024-09-16T12:17:26.884;599619611482635520;4314.358;43
2024-09-16T12:17:26.892;599619611490310016;4322.032;38
2024-09-16T12:17:26.899;599619611497984384;4329.7065;38
2024-09-16T12:17:26.907;599619611505658880;4337.3813;43
2024-09-16T12:17:26.915;599619611513333248;4345.055;48
2024-09-16T12:17:26.922;599619611521007744;4352.73;48
2024-09-16T12:17:26.930;599619611528682112;4360.4043;53
2024-09-16T12:17:26.938;599619611536356608;4368.0786;60
2024-09-16T12:17:26.945;599619611544031104;4375.7534;65
2024-09-16T12:17:26.953;599619611551705472;4383.4277;75
2024-09-16T12:17:26.961;599619611559379968;4391.1025;85
2024-09-16T12:17:26.968;599619611567054336;4398.7764;87
2024-09-16T12:17:26.976;599619611574728832;4406.451;92
2024-09-16T12:17:26.984;599619611582403200;4414.1255;97
2024-09-16T12:17:26.991;599619611590077696;4421.8;99
2024-09-16T12:17:26.999;599619611597752192;4429.474;102
2024-09-16T12:17:27.007;599619611605426560;4437.1484;107
2024-09-16T12:17:27.014;599619611613101056;4444.8237;107
2024-09-16T12:17:27.022;599619611620775424;4452.4976;107
2024-09-16T12:17:27.030;599619611628449920;4460.1724;107
2024-09-16T12:17:27.037;599619611636124288;4467.8467;107
2024-09-16T12:17:27.045;599619611643798744;4475.521;107
2024-09-16T12:17:27.053;599619611651473280;4483.1953;104
2024-09-16T12:17:27.060;599619611659147776;4490.8696;102
2024-09-16T12:17:27.068;599619611666822144;4498.5444;104
2024-09-16T12:17:27.076;599619611674496640;4506.219;104
2024-09-16T12:17:27.083;599619611682171008;4513.8936;102
2024-09-16T12:17:27.091;599619611689845504;4521.568;102
2024-09-16T12:17:27.099;599619611697519872;4529.242;104
2024-09-16T12:17:27.106;599619611705194368;4536.9165;107
2024-09-16T12:17:27.114;599619611712868864;4544.591;104
2024-09-16T12:17:27.122;599619611720543232;4552.2656;99
2024-09-16T12:17:27.129;599619611728217728;4559.94;97
2024-09-16T12:17:27.137;599619611735892096;4567.6143;102
2024-09-16T12:17:27.145;599619611743566592;4575.289;124
2024-09-16T12:17:27.152;599619611751240960;4582.9634;153
2024-09-16T12:17:27.160;599619611758915456;4590.6377;170
2024-09-16T12:17:27.168;599619611766589952;4598.312;160
2024-09-16T12:17:27.175;599619611774264320;4605.987;143
2024-09-16T12:17:27.183;599619611781938816;4613.661;128
2024-09-16T12:17:27.191;599619611789613184;4621.3354;121
2024-09-16T12:17:27.199;599619611797287680;4629.01;114
2024-09-16T12:17:27.206;599619611804962048;4636.684;107
2024-09-16T12:17:27.214;599619611812636544;4644.359;107
2024-09-16T12:17:27.222;599619611820311040;4652.033;109
2024-09-16T12:17:27.229;599619611827985408;4659.708;111
2024-09-16T12:17:27.237;599619611835659904;4667.3823;116
2024-09-16T12:17:27.245;599619611843334272;4675.0566;116
2024-09-16T12:17:27.252;599619611851008768;4682.731;102
2024-09-16T12:17:27.260;599619611858683136;4690.4053;94
2024-09-16T12:17:27.268;599619611866357632;4698.0796;262
2024-09-16T12:17:27.275;599619611874032128;4705.754;810
2024-09-16T12:17:27.283;599619611881706496;4713.429;1442
2024-09-16T12:17:27.291;599619611889380992;4721.1035;1219
2024-09-16T12:17:27.298;599619611897055360;4728.778;223
2024-09-16T12:17:27.306;599619611904729856;4736.452;-131
2024-09-16T12:17:27.314;599619611912404224;4744.1265;145
2024-09-16T12:17:27.321;599619611920078720;4751.801;65
2024-09-16T12:17:27.329;599619611927753216;4759.475;-85
2024-09-16T12:17:27.337;599619611935427584;4767.15;31
2024-09-16T12:17:27.344;599619611943102080;4774.824;55
2024-09-16T12:17:27.352;599619611950776448;4782.499;-7
2024-09-16T12:17:27.360;599619611958450944;4790.1733;26
2024-09-16T12:17:27.367;599619611966125312;4797.8477;58
2024-09-16T12:17:27.375;599619611973799808;4805.522;48
2024-09-16T12:17:27.383;599619611981474176;4813.1963;63
2024-09-16T12:17:27.390;599619611989148672;4820.871;80
2024-09-16T12:17:27.398;599619611996823168;4828.5454;77
2024-09-16T12:17:27.406;599619612004497536;4836.2197;90
2024-09-16T12:17:27.413;599619612012172032;4843.894;107
2024-09-16T12:17:27.421;599619612019846400;4851.569;116
2024-09-16T12:17:27.429;599619612027520896;4859.243;128
2024-09-16T12:17:27.436;599619612035195264;4866.9175;141
2024-09-16T12:17:27.444;599619612042869760;4874.5923;150
2024-09-16T12:17:27.452;599619612050544256;4882.2666;165
2024-09-16T12:17:27.459;599619612058218624;4889.941;184
2024-09-16T12:17:27.467;599619612065893120;4897.615;201
2024-09-16T12:17:27.475;599619612073567488;4905.2896;214
2024-09-16T12:17:27.482;599619612081241984;4912.964;231
2024-09-16T12:17:27.490;599619612088916352;4920.6387;253
2024-09-16T12:17:27.498;599619612096590848;4928.3135;265
2024-09-16T12:17:27.505;599619612104265344;4935.988;265
2024-09-16T12:17:27.513;599619612111939712;4943.662;262
2024-09-16T12:17:27.521;599619612119614208;4951.3364;260
2024-09-16T12:17:27.529;599619612127288576;4959.0107;250
2024-09-16T12:17:27.536;599619612134963072;4966.685;223
2024-09-16T12:17:27.544;599619612142637440;4974.3594;187
2024-09-16T12:17:27.552;599619612150311936;4982.0347;150
2024-09-16T12:17:27.559;599619612157986432;4989.709;116
2024-09-16T12:17:27.567;599619612165660800;4997.3833;87
2024-09-16T12:17:27.575;599619612173335296;5005.0576;65
2024-09-16T12:17:27.582;599619612181009664;5012.732;53
2024-09-16T12:17:27.590;599619612188684160;5020.4062;51
2024-09-16T12:17:27.598;599619612196358528;5028.0806;48
2024-09-16T12:17:27.605;599619612204032929;5035.755;46
2024-09-16T12:17:27.613;599619612211707776;5043.4297;48
2024-09-16T12:17:27.621;599619612219382656;5051.105;51
2024-09-16T12:17:27.628;599619612227057536;5058.78;53
2024-09-16T12:17:27.636;599619612234732416;5066.4546;60
2024-09-16T12:17:27.644;599619612242407168;5074.1294;68
2024-09-16T12:17:27.651;599619612250082048;5081.804;72
2024-09-16T12:17:27.659;599619612257756928;5089.479;77
2024-09-16T12:17:27.667;599619612265431808;5097.154;85
2024-09-16T12:17:27.674;599619612273106688;5104.829;92
2024-09-16T12:17:27.682;599619612280781568;5112.504;94
2024-09-16T12:17:27.690;599619612288456320;5120.1787;97
2024-09-16T12:17:27.697;599619612296131200;5127.8535;102
2024-09-16T12:17:27.705;599619612303806080;5135.5283;99
2024-09-16T12:17:27.713;599619612311480960;5143.203;97
2024-09-16T12:17:27.720;599619612319155840;5150.8784;99
2024-09-16T12:17:27.728;599619612326830720;5158.553;102
2024-09-16T12:17:27.736;599619612334505472;5166.2275;99
2024-09-16T12:17:27.743;599619612342180352;5173.9023;99
2024-09-16T12:17:27.751;599619612349855232;5181.577;94
2024-09-16T12:17:27.759;599619612357530112;5189.252;90
2024-09-16T12:17:27.766;599619612365204992;5196.927;94
2024-09-16T12:17:27.774;599619612372879872;5204.602;99
2024-09-16T12:17:27.782;599619612380554624;5212.277;99
2024-09-16T12:17:27.789;599619612388229504;5219.9517;94
2024-09-16T12:17:27.797;599619612395904384;5227.6265;94
2024-09-16T12:17:27.805;599619612403579264;5235.3013;99
2024-09-16T12:17:27.812;599619612411254144;5242.976;102
2024-09-16T12:17:27.820;599619612418929024;5250.6514;102
2024-09-16T12:17:27.828;599619612426603776;5258.326;107
2024-09-16T12:17:27.836;599619612434278656;5266.001;107
2024-09-16T12:17:27.843;599619612441953536;5273.676;102
2024-09-16T12:17:27.851;599619612449628416;5281.3506;102
2024-09-16T12:17:27.859;599619612457303296;5289.0254;114
2024-09-16T12:17:27.866;599619612464978176;5296.7;141
2024-09-16T12:17:27.874;599619612472652928;5304.3755;172
2024-09-16T12:17:27.882;599619612480327808;5312.0503;182
2024-09-16T12:17:27.889;599619612488002688;5319.725;163
2024-09-16T12:17:27.897;599619612495677568;5327.4;145
2024-09-16T12:17:27.905;599619612503352448;5335.0747;138
2024-09-16T12:17:27.912;599619612511027328;5342.7495;131
2024-09-16T12:17:27.920;599619612518702080;5350.425;124
2024-09-16T12:17:27.928;599619612526376960;5358.0996;114
2024-09-16T12:17:27.935;599619612534051840;5365.7744;111
2024-09-16T12:17:27.943;599619612541726720;5373.449;109
2024-09-16T12:17:27.951;599619612549401600;5381.124;111
2024-09-16T12:17:27.958;599619612557076480;5388.799;111
2024-09-16T12:17:27.966;599619612564751232;5396.473;109
2024-09-16T12:17:27.974;599619612572426112;5404.1484;92
2024-09-16T12:17:27.981;599619612580100992;5411.823;102
2024-09-16T12:17:27.989;599619612587775872;5419.498;304
2024-09-16T12:17:27.997;599619612595450752;5427.173;883
2024-09-16T12:17:28.004;599619612603125632;5434.8477;1445
2024-09-16T12:17:28.012;599619612610800384;5442.5225;1075
2024-09-16T12:17:28.020;599619612618475264;5450.1973;99
2024-09-16T12:17:28.027;599619612626150144;5457.8726;-121
2024-09-16T12:17:28.035;599619612633825024;5465.5474;150
2024-09-16T12:17:28.043;599619612641499904;5473.222;24
2024-09-16T12:17:28.050;599619612649174784;5480.897;-97
2024-09-16T12:17:28.058;599619612656849536;5488.572;34
2024-09-16T12:17:28.066;599619612664524416;5496.2466;36
2024-09-16T12:17:28.073;599619612672199296;5503.922;-21
2024-09-16T12:17:28.081;599619612679874176;5511.5967;24
2024-09-16T12:17:28.089;599619612687549056;5519.2715;53
2024-09-16T12:17:28.096;599619612695223936;5526.9463;36
2024-09-16T12:17:28.104;599619612702898688;5534.6206;48
2024-09-16T12:17:28.112;599619612710573568;5542.2954;68
2024-09-16T12:17:28.119;599619612718248448;5549.97;68
2024-09-16T12:17:28.127;599619612725923328;5557.6455;75
2024-09-16T12:17:28.135;599619612733598208;5565.3203;90
2024-09-16T12:17:28.142;599619612741273088;5572.995;99
2024-09-16T12:17:28.150;599619612748947840;5580.67;107
2024-09-16T12:17:28.158;599619612756622720;5588.3447;121
2024-09-16T12:17:28.166;599619612764297632;5596.0195;133
2024-09-16T12:17:28.173;599619612771972096;5603.695;145
2024-09-16T12:17:28.181;599619612779646592;5611.369;160
2024-09-16T12:17:28.189;599619612787320960;5619.0435;180
2024-09-16T12:17:28.196;599619612794995456;5626.718;197
2024-09-16T12:17:28.204;599619612802669824;5634.392;214
2024-09-16T12:17:28.212;599619612810344320;5642.0664;226
2024-09-16T12:17:28.219;599619612818018688;5649.7407;236
2024-09-16T12:17:28.227;599619612825693184;5657.4155;245
2024-09-16T12:17:28.235;599619612833367680;5665.09;243
2024-09-16T12:17:28.242;599619612841042048;5672.7646;228
2024-09-16T12:17:28.250;599619612848716544;5680.439;209
2024-09-16T12:17:28.258;599619612856390912;5688.1133;192
2024-09-16T12:17:28.265;599619612864065408;5695.7876;158
2024-09-16T12:17:28.273;599619612871739776;5703.462;119
2024-09-16T12:17:28.281;599619612879414272;5711.1367;90
2024-09-16T12:17:28.288;599619612887088768;5718.811;65
2024-09-16T12:17:28.296;599619612894763136;5726.4854;41
2024-09-16T12:17:28.304;599619612902437632;5734.1597;29
2024-09-16T12:17:28.311;599619612910112000;5741.8345;24
2024-09-16T12:17:28.319;599619612917786496;5749.509;24
2024-09-16T12:17:28.327;599619612925460864;5757.183;21
2024-09-16T12:17:28.334;599619612933135360;5764.858;17
2024-09-16T12:17:28.342;599619612940809856;5772.532;24
2024-09-16T12:17:28.350;599619612948484224;5780.2065;31
2024-09-16T12:17:28.357;599619612956158720;5787.881;31
2024-09-16T12:17:28.365;599619612963833088;5795.555;34
2024-09-16T12:17:28.373;599619612971507584;5803.2295;43
2024-09-16T12:17:28.380;599619612979181952;5810.9043;53
2024-09-16T12:17:28.388;599619612986856448;5818.579;58
2024-09-16T12:17:28.396;599619612994530944;5826.2534;60
2024-09-16T12:17:28.403;599619613002205312;5833.9277;65
2024-09-16T12:17:28.411;599619613009879808;5841.602;68
2024-09-16T12:17:28.419;599619613017554176;5849.2764;68
2024-09-16T12:17:28.426;599619613025228672;5856.9507;70
2024-09-16T12:17:28.434;599619613032903040;5864.625;72
2024-09-16T12:17:28.442;599619613040577536;5872.3;72
2024-09-16T12:17:28.449;599619613048252032;5879.9746;70
2024-09-16T12:17:28.457;599619613055926400;5887.649;75
2024-09-16T12:17:28.465;599619613063600896;5895.323;77
2024-09-16T12:17:28.472;599619613071275264;5902.9976;70
2024-09-16T12:17:28.480;599619613078949760;5910.672;60
2024-09-16T12:17:28.488;599619613086624128;5918.346;63
2024-09-16T12:17:28.496;599619613094298624;5926.021;65
2024-09-16T12:17:28.503;599619613101972992;5933.695;65
2024-09-16T12:17:28.511;599619613109647488;5941.3696;68
2024-09-16T12:17:28.519;599619613117321984;5949.0444;75
2024-09-16T12:17:28.526;599619613124996352;5956.7188;75
2024-09-16T12:17:28.534;599619613132670848;5964.393;70
2024-09-16T12:17:28.542;599619613140345216;5972.0674;70
2024-09-16T12:17:28.549;599619613148019712;5979.742;72
2024-09-16T12:17:28.557;599619613155694080;5987.416;72
2024-09-16T12:17:28.565;599619613163368576;5995.091;75
2024-09-16T12:17:28.572;599619613171043072;6002.765;72
2024-09-16T12:17:28.580;599619613178717440;6010.4395;65
2024-09-16T12:17:28.588;599619613186391936;6018.1143;72
2024-09-16T12:17:28.595;599619613194066304;6025.7886;97
2024-09-16T12:17:28.603;599619613201740800;6033.4634;124
2024-09-16T12:17:28.611;599619613209415168;6041.137;138
2024-09-16T12:17:28.618;599619613217089664;6048.812;131
2024-09-16T12:17:28.626;599619613224764160;6056.4863;116
2024-09-16T12:17:28.634;599619613232438528;6064.1606;99
2024-09-16T12:17:28.641;599619613240113024;6071.835;87
2024-09-16T12:17:28.649;599619613247787392;6079.5093;82
2024-09-16T12:17:28.657;599619613255461888;6087.1846;80
2024-09-16T12:17:28.664;599619613263136256;6094.8584;82
2024-09-16T12:17:28.672;599619613270810752;6102.533;82
2024-09-16T12:17:28.680;599619613278485248;6110.2075;80
2024-09-16T12:17:28.687;599619613286159616;6117.882;82
2024-09-16T12:17:28.695;599619613293834112;6125.556;82
2024-09-16T12:17:28.703;599619613301508480;6133.2305;68
2024-09-16T12:17:28.710;599619613309182976;6140.9053;75
2024-09-16T12:17:28.718;599619613316857344;6148.579;267
2024-09-16T12:17:28.726;599619613324531817;6156.2544;844
2024-09-16T12:17:28.733;599619613332206336;6163.9287;1464
2024-09-16T12:17:28.741;599619613339880832;6171.603;1133
2024-09-16T12:17:28.749;599619613347555200;6179.2773;72
2024-09-16T12:17:28.756;599619613355229696;6186.9517;-201
2024-09-16T12:17:28.764;599619613362904064;6194.6265;153
2024-09-16T12:17:28.772;599619613370578560;6202.301;58
2024-09-16T12:17:28.779;599619613378252928;6209.975;-121
2024-09-16T12:17:28.787;599619613385927424;6217.65;9
2024-09-16T12:17:28.795;599619613393601920;6225.324;43
2024-09-16T12:17:28.802;599619613401276288;6232.9985;-26
2024-09-16T12:17:28.810;599619613408950784;6240.673;7
2024-09-16T12:17:28.818;599619613416625152;6248.3477;43
2024-09-16T12:17:28.826;599619613424299648;6256.022;34
2024-09-16T12:17:28.833;599619613431974016;6263.6963;48
2024-09-16T12:17:28.841;599619613439648512;6271.3706;60
2024-09-16T12:17:28.849;599619613447323008;6279.045;58
2024-09-16T12:17:28.856;599619613454997376;6286.7197;65
2024-09-16T12:17:28.864;599619613462671872;6294.394;82
2024-09-16T12:17:28.872;599619613470346240;6302.069;99
2024-09-16T12:17:28.879;599619613478020736;6309.743;109
2024-09-16T12:17:28.887;599619613485695104;6317.4175;119
2024-09-16T12:17:28.895;599619613493369600;6325.092;128
2024-09-16T12:17:28.902;599619613501044096;6332.766;143
2024-09-16T12:17:28.910;599619613508718464;6340.4404;160
2024-09-16T12:17:28.918;599619613516392960;6348.1147;184
2024-09-16T12:17:28.925;599619613524067328;6355.79;206
2024-09-16T12:17:28.933;599619613531741824;6363.4644;223
2024-09-16T12:17:28.941;599619613539416192;6371.1387;236
2024-09-16T12:17:28.948;599619613547090688;6378.813;245
2024-09-16T12:17:28.956;599619613554765184;6386.4873;250
2024-09-16T12:17:28.964;599619613562439552;6394.1616;248
2024-09-16T12:17:28.971;599619613570114048;6401.836;236
2024-09-16T12:17:28.979;599619613577788416;6409.5107;218
2024-09-16T12:17:28.987;599619613585462912;6417.185;197
2024-09-16T12:17:28.994;599619613593137280;6424.86;163
2024-09-16T12:17:29.002;599619613600811776;6432.534;124
2024-09-16T12:17:29.010;599619613608486272;6440.2085;92
2024-09-16T12:17:29.017;599619613616160640;6447.883;63
2024-09-16T12:17:29.025;599619613623835136;6455.557;41
2024-09-16T12:17:29.033;599619613631509504;6463.232;29
2024-09-16T12:17:29.040;599619613639184000;6470.9062;19
2024-09-16T12:17:29.048;599619613646858368;6478.5806;17
2024-09-16T12:17:29.056;599619613654532864;6486.255;17
2024-09-16T12:17:29.063;599619613662207232;6493.9297;21
2024-09-16T12:17:29.071;599619613669881728;6501.604;26
2024-09-16T12:17:29.079;599619613677556224;6509.2783;29
2024-09-16T12:17:29.086;599619613685230592;6516.953;36
2024-09-16T12:17:29.094;599619613692905088;6524.6274;41
2024-09-16T12:17:29.102;599619613700579456;6532.302;46
2024-09-16T12:17:29.109;599619613708253952;6539.976;53
2024-09-16T12:17:29.117;599619613715928320;6547.6504;58
2024-09-16T12:17:29.125;599619613723602816;6555.3247;58
2024-09-16T12:17:29.132;599619613731277312;6562.9995;55
2024-09-16T12:17:29.140;599619613738951680;6570.6743;63
2024-09-16T12:17:29.148;599619613746626176;6578.3486;68
2024-09-16T12:17:29.156;599619613754300544;6586.023;65
2024-09-16T12:17:29.163;599619613761975040;6593.6973;60
2024-09-16T12:17:29.171;599619613769649408;6601.3716;63
2024-09-16T12:17:29.179;599619613777323904;6609.046;65
2024-09-16T12:17:29.186;599619613784998400;6616.72;60
2024-09-16T12:17:29.194;599619613792672768;6624.3955;55
2024-09-16T12:17:29.202;599619613800347264;6632.07;60
2024-09-16T12:17:29.209;599619613808021632;6639.744;63
2024-09-16T12:17:29.217;599619613815696128;6647.4185;60
2024-09-16T12:17:29.225;599619613823370496;6655.093;55
2024-09-16T12:17:29.232;599619613831044992;6662.767;55
2024-09-16T12:17:29.240;599619613838719488;6670.4414;58
2024-09-16T12:17:29.248;599619613846393856;6678.116;60
2024-09-16T12:17:29.255;599619613854068352;6685.7905;60
2024-09-16T12:17:29.263;599619613861742720;6693.4653;63
2024-09-16T12:17:29.271;599619613869417216;6701.1396;60
2024-09-16T12:17:29.278;599619613877091584;6708.814;55
2024-09-16T12:17:29.286;599619613884766002;6716.4883;63
2024-09-16T12:17:29.294;599619613892440448;6724.1626;85
2024-09-16T12:17:29.301;599619613900114944;6731.8374;116
2024-09-16T12:17:29.309;599619613907789312;6739.511;138
2024-09-16T12:17:29.317;599619613915463808;6747.186;131
2024-09-16T12:17:29.324;599619613923138176;6754.8604;107
2024-09-16T12:17:29.332;599619613930812672;6762.5347;90
2024-09-16T12:17:29.340;599619613938487040;6770.2095;82
2024-09-16T12:17:29.347;599619613946161536;6777.884;82
2024-09-16T12:17:29.355;599619613953836032;6785.5586;80
2024-09-16T12:17:29.363;599619613961510400;6793.2324;82
2024-09-16T12:17:29.370;599619613969184896;6800.907;87
2024-09-16T12:17:29.378;599619613976859264;6808.5815;87
2024-09-16T12:17:29.386;599619613984533760;6816.256;92
2024-09-16T12:17:29.393;599619613992208128;6823.93;99
2024-09-16T12:17:29.401;599619613999882624;6831.6045;87
2024-09-16T12:17:29.409;599619614007557120;6839.28;87
2024-09-16T12:17:29.416;599619614015231488;6846.9536;277
2024-09-16T12:17:29.424;599619614022905984;6854.6284;863
2024-09-16T12:17:29.432;599619614030580352;6862.3027;1518
2024-09-16T12:17:29.439;599619614038254848;6869.977;1223
2024-09-16T12:17:29.447;599619614045929216;6877.6514;143
2024-09-16T12:17:29.455;599619614053603712;6885.3257;-182
2024-09-16T12:17:29.463;599619614061278208;6893.0005;155
2024-09-16T12:17:29.470;599619614068952576;6900.6743;65
2024-09-16T12:17:29.478;599619614076627072;6908.3496;-104
2024-09-16T12:17:29.486;599619614084301440;6916.024;34
2024-09-16T12:17:29.493;599619614091975936;6923.698;70
2024-09-16T12:17:29.501;599619614099650304;6931.3726;0
2024-09-16T12:17:29.509;599619614107324800;6939.047;41
2024-09-16T12:17:29.516;599619614114999296;6946.7217;85
2024-09-16T12:17:29.524;599619614122673664;6954.3955;70
2024-09-16T12:17:29.532;599619614130348160;6962.0703;75
2024-09-16T12:17:29.539;599619614138022528;6969.745;97
2024-09-16T12:17:29.547;599619614145697024;6977.4194;102
2024-09-16T12:17:29.555;599619614153371392;6985.0938;109
2024-09-16T12:17:29.562;599619614161045888;6992.768;126
2024-09-16T12:17:29.570;599619614168720384;7000.443;133
2024-09-16T12:17:29.578;599619614176394752;7008.1167;138
2024-09-16T12:17:29.585;599619614184069248;7015.7915;153
2024-09-16T12:17:29.593;599619614191743616;7023.466;170
2024-09-16T12:17:29.601;599619614199418112;7031.14;180
2024-09-16T12:17:29.608;599619614207092480;7038.815;192
2024-09-16T12:17:29.616;599619614214766976;7046.4893;209
2024-09-16T12:17:29.624;599619614222441344;7054.1636;223
2024-09-16T12:17:29.631;599619614230115840;7061.838;233
2024-09-16T12:17:29.639;599619614237790336;7069.5127;243
2024-09-16T12:17:29.647;599619614245464704;7077.187;253
2024-09-16T12:17:29.654;599619614253139200;7084.8613;255
2024-09-16T12:17:29.662;599619614260813568;7092.5356;253
2024-09-16T12:17:29.670;599619614268488064;7100.21;245
2024-09-16T12:17:29.677;599619614276162432;7107.885;231
2024-09-16T12:17:29.685;599619614283836928;7115.559;201
2024-09-16T12:17:29.693;599619614291511424;7123.234;165
2024-09-16T12:17:29.700;599619614299185792;7130.908;128
2024-09-16T12:17:29.708;599619614306860288;7138.5825;92
2024-09-16T12:17:29.716;599619614314534656;7146.257;65
2024-09-16T12:17:29.723;599619614322209152;7153.931;53
2024-09-16T12:17:29.731;599619614329883520;7161.6055;55
2024-09-16T12:17:29.739;599619614337558016;7169.28;63
2024-09-16T12:17:29.746;599619614345232512;7176.955;70
2024-09-16T12:17:29.754;599619614352906880;7184.6294;70
2024-09-16T12:17:29.762;599619614360581376;7192.3037;65
2024-09-16T12:17:29.769;599619614368255744;7199.978;68
2024-09-16T12:17:29.777;599619614375930240;7207.6523;80
2024-09-16T12:17:29.785;599619614383604608;7215.3267;92
2024-09-16T12:17:29.793;599619614391279104;7223.001;97
2024-09-16T12:17:29.800;599619614398953600;7230.676;104
2024-09-16T12:17:29.808;599619614406627968;7238.35;116
2024-09-16T12:17:29.816;599619614414302464;7246.025;128
2024-09-16T12:17:29.823;599619614421976832;7253.699;128
2024-09-16T12:17:29.831;599619614429651328;7261.3735;126
2024-09-16T12:17:29.839;599619614437325696;7269.048;136
2024-09-16T12:17:29.846;599619614445000187;7276.722;155
2024-09-16T12:17:29.854;599619614452674688;7284.397;167
2024-09-16T12:17:29.862;599619614460349184;7292.0713;167
2024-09-16T12:17:29.869;599619614468023552;7299.7456;167
2024-09-16T12:17:29.877;599619614475698048;7307.42;172
2024-09-16T12:17:29.885;599619614483372416;7315.0947;175
2024-09-16T12:17:29.892;599619614491046912;7322.7695;172
2024-09-16T12:17:29.900;599619614498721280;7330.4434;172
2024-09-16T12:17:29.908;599619614506395776;7338.118;177
2024-09-16T12:17:29.915;599619614514070272;7345.7925;177
2024-09-16T12:17:29.923;599619614521744640;7353.467;175
2024-09-16T12:17:29.931;599619614529419136;7361.141;177
2024-09-16T12:17:29.938;599619614537093504;7368.8154;180
2024-09-16T12:17:29.946;599619614544768000;7376.4907;170
2024-09-16T12:17:29.954;599619614552442368;7384.1646;158
2024-09-16T12:17:29.961;599619614560116864;7391.8394;150
2024-09-16T12:17:29.969;599619614567791360;7399.5137;143
2024-09-16T12:17:29.977;599619614575465728;7407.188;136
2024-09-16T12:17:29.984;599619614583140224;7414.8623;138
2024-09-16T12:17:29.992;599619614590814592;7422.5366;160
2024-09-16T12:17:30.000;599619614598489088;7430.2114;197
2024-09-16T12:17:30.007;599619614606163456;7437.8853;221
2024-09-16T12:17:30.015;599619614613837952;7445.5605;223
2024-09-16T12:17:30.023;599619614621512448;7453.235;211
2024-09-16T12:17:30.030;599619614629186816;7460.909;192
2024-09-16T12:17:30.038;599619614636861312;7468.5835;172
2024-09-16T12:17:30.046;599619614644535680;7476.258;160
2024-09-16T12:17:30.053;599619614652210176;7483.9326;158
2024-09-16T12:17:30.061;599619614659884544;7491.6064;160
2024-09-16T12:17:30.069;599619614667559040;7499.2812;150
2024-09-16T12:17:30.076;599619614675233536;7506.9556;138
2024-09-16T12:17:30.084;599619614682907904;7514.6304;136
2024-09-16T12:17:30.092;599619614690582400;7522.3047;143
2024-09-16T12:17:30.099;599619614698256768;7529.979;141
2024-09-16T12:17:30.107;599619614705931264;7537.654;128
2024-09-16T12:17:30.115;599619614713605632;7545.3276;204
2024-09-16T12:17:30.123;599619614721280128;7553.0024;593
2024-09-16T12:17:30.130;599619614728954624;7560.677;1277
2024-09-16T12:17:30.138;599619614736628992;7568.351;1445
2024-09-16T12:17:30.146;599619614744303488;7576.0254;583
2024-09-16T12:17:30.153;599619614751977856;7583.7;-121
2024-09-16T12:17:30.161;599619614759652352;7591.375;53
2024-09-16T12:17:30.169;599619614767326720;7599.049;143
2024-09-16T12:17:30.176;599619614775001216;7606.7236;-68
2024-09-16T12:17:30.184;599619614782675584;7614.398;-26
2024-09-16T12:17:30.192;599619614790350080;7622.0723;68
2024-09-16T12:17:30.199;599619614798024576;7629.7466;2
2024-09-16T12:17:30.207;599619614805698944;7637.421;-7
2024-09-16T12:17:30.215;599619614813373440;7645.0957;43
2024-09-16T12:17:30.222;599619614821047808;7652.77;36
2024-09-16T12:17:30.230;599619614828722304;7660.445;29
2024-09-16T12:17:30.238;599619614836396672;7668.119;48
2024-09-16T12:17:30.245;599619614844071168;7675.7935;58
2024-09-16T12:17:30.253;599619614851745664;7683.468;63
2024-09-16T12:17:30.261;599619614859420032;7691.142;80
2024-09-16T12:17:30.268;599619614867094528;7698.817;97
2024-09-16T12:17:30.276;599619614874768896;7706.4907;107
2024-09-16T12:17:30.284;599619614882443392;7714.1655;116
2024-09-16T12:17:30.291;599619614890117760;7721.8403;126
2024-09-16T12:17:30.299;599619614897792256;7729.5146;138
2024-09-16T12:17:30.307;599619614905466752;7737.189;150
2024-09-16T12:17:30.314;599619614913141120;7744.8633;160
2024-09-16T12:17:30.322;599619614920815616;7752.538;172
2024-09-16T12:17:30.330;599619614928489984;7760.212;187
2024-09-16T12:17:30.337;599619614936164480;7767.8867;201
2024-09-16T12:17:30.345;599619614943838848;7775.561;214
2024-09-16T12:17:30.353;599619614951513344;7783.2354;223
2024-09-16T12:17:30.360;599619614959187840;7790.91;226
2024-09-16T12:17:30.368;599619614966862208;7798.5845;218
2024-09-16T12:17:30.376;599619614974536704;7806.2593;206
2024-09-16T12:17:30.383;599619614982211072;7813.933;192
2024-09-16T12:17:30.391;599619614989885568;7821.608;177
2024-09-16T12:17:30.399;599619614997559936;7829.282;145
2024-09-16T12:17:30.406;599619615005234372;7836.9565;107
2024-09-16T12:17:30.414;599619615012909312;7844.6313;80
2024-09-16T12:17:30.422;599619615020584192;7852.3066;63
2024-09-16T12:17:30.429;599619615028259072;7859.9814;38
2024-09-16T12:17:30.437;599619615035933952;7867.6562;21
2024-09-16T12:17:30.445;599619615043608704;7875.331;17
2024-09-16T12:17:30.453;599619615051283584;7883.006;12
2024-09-16T12:17:30.460;599619615058958464;7890.6807;7
2024-09-16T12:17:30.468;599619615066633344;7898.3555;9
2024-09-16T12:17:30.476;599619615074308224;7906.031;21
2024-09-16T12:17:30.483;599619615081983104;7913.7056;36
2024-09-16T12:17:30.491;599619615089657856;7921.3804;46
2024-09-16T12:17:30.499;599619615097332736;7929.055;51
2024-09-16T12:17:30.506;599619615105007616;7936.73;58
2024-09-16T12:17:30.514;599619615112682496;7944.405;70
2024-09-16T12:17:30.522;599619615120357376;7952.08;82
2024-09-16T12:17:30.529;599619615128032256;7959.755;92
2024-09-16T12:17:30.537;599619615135707008;7967.429;97
2024-09-16T12:17:30.545;599619615143381888;7975.104;94
2024-09-16T12:17:30.552;599619615151056768;7982.779;87
2024-09-16T12:17:30.560;599619615158731648;7990.4536;82
2024-09-16T12:17:30.568;599619615166406528;7998.1284;75
2024-09-16T12:17:30.575;599619615174081408;8005.8037;72
2024-09-16T12:17:30.583;599619615181756160;8013.4785;72
2024-09-16T12:17:30.591;599619615189431040;8021.1533;75
2024-09-16T12:17:30.598;599619615197105920;8028.828;72
2024-09-16T12:17:30.606;599619615204780800;8036.503;70
2024-09-16T12:17:30.614;599619615212455680;8044.1777;77
2024-09-16T12:17:30.621;599619615220130560;8051.853;87
2024-09-16T12:17:30.629;599619615227805312;8059.528;85
2024-09-16T12:17:30.637;599619615235480192;8067.2026;80
2024-09-16T12:17:30.644;599619615243155072;8074.8774;77
2024-09-16T12:17:30.652;599619615250829952;8082.5522;77
2024-09-16T12:17:30.660;599619615258504832;8090.227;80
2024-09-16T12:17:30.667;599619615266179712;8097.902;85
2024-09-16T12:17:30.675;599619615273854464;8105.5767;82
2024-09-16T12:17:30.683;599619615281529344;8113.2515;75
2024-09-16T12:17:30.690;599619615289204224;8120.9263;72
2024-09-16T12:17:30.698;599619615296879104;8128.601;85
2024-09-16T12:17:30.706;599619615304553984;8136.276;116
2024-09-16T12:17:30.713;599619615312228864;8143.9507;141
2024-09-16T12:17:30.721;599619615319903616;8151.6255;133
2024-09-16T12:17:30.729;599619615327578496;8159.301;114
2024-09-16T12:17:30.736;599619615335253376;8166.9756;97
2024-09-16T12:17:30.744;599619615342928256;8174.6504;85
2024-09-16T12:17:30.752;599619615350603136;8182.325;77
2024-09-16T12:17:30.760;599619615358278016;8190.0;75
2024-09-16T12:17:30.767;599619615365952768;8197.675;65
2024-09-16T12:17:30.775;599619615373627648;8205.35;63
2024-09-16T12:17:30.783;599619615381302528;8213.024;68
2024-09-16T12:17:30.790;599619615388977408;8220.699;72
2024-09-16T12:17:30.798;599619615396652288;8228.375;75
2024-09-16T12:17:30.806;599619615404327168;8236.05;72
2024-09-16T12:17:30.813;599619615412001920;8243.725;53
2024-09-16T12:17:30.821;599619615419676800;8251.399;87
2024-09-16T12:17:30.829;599619615427351680;8259.074;374
2024-09-16T12:17:30.836;599619615435026560;8266.749;1017
2024-09-16T12:17:30.844;599619615442701440;8274.424;1408
2024-09-16T12:17:30.852;599619615450376320;8282.099;776
2024-09-16T12:17:30.859;599619615458051072;8289.773;-102
2024-09-16T12:17:30.867;599619615465725952;8297.448;-87
2024-09-16T12:17:30.875;599619615473400832;8305.123;136
2024-09-16T12:17:30.882;599619615481075712;8312.798;-63
2024-09-16T12:17:30.890;599619615488750592;8320.473;-109
2024-09-16T12:17:30.898;599619615496425472;8328.148;24
2024-09-16T12:17:30.905;599619615504100224;8335.822;-9
2024-09-16T12:17:30.913;599619615511775104;8343.497;-51
2024-09-16T12:17:30.921;599619615519449984;8351.172;0
2024-09-16T12:17:30.928;599619615527124864;8358.847;9
2024-09-16T12:17:30.936;599619615534799744;8366.521;-7
2024-09-16T12:17:30.944;599619615542474624;8374.196;9
2024-09-16T12:17:30.951;599619615550149376;8381.872;26
2024-09-16T12:17:30.959;599619615557824256;8389.547;29
2024-09-16T12:17:30.967;599619615565499075;8397.222;43
2024-09-16T12:17:30.974;599619615573173632;8404.8955;55
2024-09-16T12:17:30.982;599619615580848128;8412.57;63
2024-09-16T12:17:30.990;599619615588522496;8420.244;80
2024-09-16T12:17:30.997;599619615596196992;8427.919;99
2024-09-16T12:17:31.005;599619615603871360;8435.594;104
2024-09-16T12:17:31.013;599619615611545856;8443.269;111
2024-09-16T12:17:31.020;599619615619220224;8450.942;133
2024-09-16T12:17:31.028;599619615626894720;8458.617;153
2024-09-16T12:17:31.036;599619615634569216;8466.292;160
2024-09-16T12:17:31.043;599619615642243584;8473.966;172
2024-09-16T12:17:31.051;599619615649918080;8481.641;192
2024-09-16T12:17:31.059;599619615657592448;8489.314;201
2024-09-16T12:17:31.066;599619615665266944;8496.989;201
2024-09-16T12:17:31.074;599619615672941312;8504.663;199
2024-09-16T12:17:31.082;599619615680615808;8512.338;189
2024-09-16T12:17:31.090;599619615688290304;8520.013;172
2024-09-16T12:17:31.097;599619615695964672;8527.687;150
2024-09-16T12:17:31.105;599619615703639168;8535.361;119
2024-09-16T12:17:31.113;599619615711313536;8543.036;77
2024-09-16T12:17:31.120;599619615718988032;8550.71;46
2024-09-16T12:17:31.128;599619615726662400;8558.385;21
2024-09-16T12:17:31.136;599619615734336896;8566.059;4
2024-09-16T12:17:31.143;599619615742011392;8573.734;-4
2024-09-16T12:17:31.151;599619615749685760;8581.408;-9
2024-09-16T12:17:31.159;599619615757360256;8589.083;-17
2024-09-16T12:17:31.166;599619615765034624;8596.757;-24
2024-09-16T12:17:31.174;599619615772709120;8604.432;-19
2024-09-16T12:17:31.182;599619615780383488;8612.106;-7
2024-09-16T12:17:31.189;599619615788057984;8619.78;0
2024-09-16T12:17:31.197;599619615795732480;8627.455;2
2024-09-16T12:17:31.205;599619615803406848;8635.129;2
2024-09-16T12:17:31.212;599619615811081344;8642.804;7
2024-09-16T12:17:31.220;599619615818755712;8650.478;17
2024-09-16T12:17:31.228;599619615826430208;8658.152;21
2024-09-16T12:17:31.235;599619615834104576;8665.827;24
2024-09-16T12:17:31.243;599619615841779072;8673.501;26
2024-09-16T12:17:31.251;599619615849453568;8681.176;34
2024-09-16T12:17:31.258;599619615857127936;8688.85;36
2024-09-16T12:17:31.266;599619615864802432;8696.524;38
2024-09-16T12:17:31.274;599619615872476800;8704.198;41
2024-09-16T12:17:31.281;599619615880151296;8711.874;36
2024-09-16T12:17:31.289;599619615887825664;8719.549;34
2024-09-16T12:17:31.297;599619615895500160;8727.223;34
2024-09-16T12:17:31.304;599619615903174528;8734.897;29
2024-09-16T12:17:31.312;599619615910849024;8742.571;26
2024-09-16T12:17:31.320;599619615918523520;8750.246;31
2024-09-16T12:17:31.327;599619615926197888;8757.92;34
2024-09-16T12:17:31.335;599619615933872384;8765.595;38
2024-09-16T12:17:31.343;599619615941546752;8773.27;38
2024-09-16T12:17:31.350;599619615949221248;8780.943;36
2024-09-16T12:17:31.358;599619615956895616;8788.618;34
2024-09-16T12:17:31.366;599619615964570112;8796.292;29
2024-09-16T12:17:31.373;599619615972244608;8803.967;31
2024-09-16T12:17:31.381;599619615979918976;8811.641;36
2024-09-16T12:17:31.389;599619615987593472;8819.315;34
2024-09-16T12:17:31.396;599619615995267840;8826.99;34
2024-09-16T12:17:31.404;599619616002942336;8834.664;51
2024-09-16T12:17:31.412;599619616010616704;8842.339;85
2024-09-16T12:17:31.420;599619616018291200;8850.014;102
2024-09-16T12:17:31.427;599619616025965696;8857.688;90
2024-09-16T12:17:31.435;599619616033640064;8865.362;72
2024-09-16T12:17:31.443;599619616041314560;8873.037;55
2024-09-16T12:17:31.450;599619616048988928;8880.712;43
2024-09-16T12:17:31.458;599619616056663424;8888.386;41
2024-09-16T12:17:31.466;599619616064337792;8896.061;38
2024-09-16T12:17:31.473;599619616072012288;8903.734;38
2024-09-16T12:17:31.481;599619616079686784;8911.409;43
2024-09-16T12:17:31.489;599619616087361152;8919.083;48
2024-09-16T12:17:31.496;599619616095035648;8926.758;48
2024-09-16T12:17:31.504;599619616102710016;8934.433;51
2024-09-16T12:17:31.512;599619616110384512;8942.106;34
2024-09-16T12:17:31.519;599619616118058880;8949.781;41
2024-09-16T12:17:31.527;599619616125733260;8957.455;270
2024-09-16T12:17:31.535;599619616133407744;8965.13;902
2024-09-16T12:17:31.542;599619616141082240;8972.804;1486
2024-09-16T12:17:31.550;599619616148756736;8980.479;1021
2024-09-16T12:17:31.558;599619616156431232;8988.154;-55
2024-09-16T12:17:31.565;599619616164105728;8995.828;-233
2024-09-16T12:17:31.573;599619616171780352;9003.503;128
2024-09-16T12:17:31.581;599619616179454848;9011.178;-9
2024-09-16T12:17:31.588;599619616187129344;9018.852;-167
2024-09-16T12:17:31.596;599619616194803840;9026.526;-19
2024-09-16T12:17:31.604;599619616202478336;9034.201;-2
2024-09-16T12:17:31.611;599619616210152832;9041.875;-77
2024-09-16T12:17:31.619;599619616217827328;9049.55;-36
2024-09-16T12:17:31.627;599619616225501824;9057.224;2
2024-09-16T12:17:31.634;599619616233176320;9064.898;-17
2024-09-16T12:17:31.642;599619616240850944;9072.573;-7
2024-09-16T12:17:31.650;599619616248525440;9080.247;14
2024-09-16T12:17:31.657;599619616256199936;9087.922;19
2024-09-16T12:17:31.665;599619616263874432;9095.597;26
2024-09-16T12:17:31.673;599619616271548928;9103.2705;41
2024-09-16T12:17:31.680;599619616279223424;9110.945;48
2024-09-16T12:17:31.688;599619616286897920;9118.62;55
2024-09-16T12:17:31.696;599619616294572416;9126.295;70
2024-09-16T12:17:31.703;599619616302246912;9133.97;87
2024-09-16T12:17:31.711;599619616309921536;9141.644;104
2024-09-16T12:17:31.719;599619616317596032;9149.318;124
2024-09-16T12:17:31.726;599619616325270528;9156.993;145
2024-09-16T12:17:31.734;599619616332945024;9164.667;165
2024-09-16T12:17:31.742;599619616340619520;9172.342;182
2024-09-16T12:17:31.750;599619616348294016;9180.017;199
2024-09-16T12:17:31.757;599619616355968512;9187.69;209
2024-09-16T12:17:31.765;599619616363643008;9195.365;209
2024-09-16T12:17:31.773;599619616371317632;9203.04;201
2024-09-16T12:17:31.780;599619616378992128;9210.714;199
2024-09-16T12:17:31.788;599619616386666624;9218.389;189
2024-09-16T12:17:31.796;599619616394341120;9226.063;160
2024-09-16T12:17:31.803;599619616402015616;9233.737;119
2024-09-16T12:17:31.811;599619616409690112;9241.413;77
2024-09-16T12:17:31.819;599619616417364608;9249.087;41
2024-09-16T12:17:31.826;599619616425039104;9256.762;19
2024-09-16T12:17:31.834;599619616432713600;9264.437;4
2024-09-16T12:17:31.842;599619616440388224;9272.11;-17
2024-09-16T12:17:31.849;599619616448062720;9279.785;-29
2024-09-16T12:17:31.857;599619616455737216;9287.46;-24
2024-09-16T12:17:31.865;599619616463411712;9295.134;-29
2024-09-16T12:17:31.872;599619616471086208;9302.809;-31
2024-09-16T12:17:31.880;599619616478760704;9310.482;-21
2024-09-16T12:17:31.888;599619616486435200;9318.157;-17
2024-09-16T12:17:31.895;599619616494109696;9325.832;-17
2024-09-16T12:17:31.903;599619616501784192;9333.506;-4
2024-09-16T12:17:31.911;599619616509458816;9341.181;7
2024-09-16T12:17:31.918;599619616517133312;9348.855;4
2024-09-16T12:17:31.926;599619616524807808;9356.529;9
2024-09-16T12:17:31.934;599619616532482304;9364.204;19
2024-09-16T12:17:31.941;599619616540156800;9371.88;21
2024-09-16T12:17:31.949;599619616547831296;9379.554;21
2024-09-16T12:17:31.957;599619616555505792;9387.229;24
2024-09-16T12:17:31.964;599619616563180288;9394.903;21
2024-09-16T12:17:31.972;599619616570854784;9402.577;21
2024-09-16T12:17:31.980;599619616578529408;9410.252;26
2024-09-16T12:17:31.987;599619616586203904;9417.927;29
2024-09-16T12:17:31.995;599619616593878400;9425.601;26
2024-09-16T12:17:32.003;599619616601552896;9433.275;29
2024-09-16T12:17:32.010;599619616609227392;9440.949;31
2024-09-16T12:17:32.018;599619616616901888;9448.624;34
2024-09-16T12:17:32.026;599619616624576384;9456.299;38
2024-09-16T12:17:32.033;599619616632250880;9463.973;38
2024-09-16T12:17:32.041;599619616639925376;9471.647;36
2024-09-16T12:17:32.049;599619616647600000;9479.322;38
2024-09-16T12:17:32.056;599619616655274496;9486.996;41
2024-09-16T12:17:32.064;599619616662948992;9494.671;36
2024-09-16T12:17:32.072;599619616670623488;9502.346;41
2024-09-16T12:17:32.080;599619616678297984;9510.0205;63
2024-09-16T12:17:32.087;599619616685972528;9517.695;97
2024-09-16T12:17:32.095;599619616693647232;9525.37;114
2024-09-16T12:17:32.103;599619616701321984;9533.045;104
2024-09-16T12:17:32.110;599619616708996864;9540.719;90
2024-09-16T12:17:32.118;599619616716671616;9548.394;72
2024-09-16T12:17:32.126;599619616724346368;9556.068;58
2024-09-16T12:17:32.133;599619616732021120;9563.743;55
2024-09-16T12:17:32.141;599619616739696000;9571.418;55
2024-09-16T12:17:32.149;599619616747370752;9579.093;53
2024-09-16T12:17:32.156;599619616755045504;9586.768;55
2024-09-16T12:17:32.164;599619616762720384;9594.442;55
2024-09-16T12:17:32.172;599619616770395136;9602.117;58
2024-09-16T12:17:32.179;599619616778069888;9609.793;58
2024-09-16T12:17:32.187;599619616785744640;9617.468;48
2024-09-16T12:17:32.195;599619616793419520;9625.142;38
2024-09-16T12:17:32.202;599619616801094272;9632.816;175
2024-09-16T12:17:32.210;599619616808769024;9640.491;695
2024-09-16T12:17:32.218;599619616816443904;9648.166;1411
2024-09-16T12:17:32.225;599619616824118656;9655.841;1328
2024-09-16T12:17:32.233;599619616831793408;9663.516;291
2024-09-16T12:17:32.241;599619616839468288;9671.19;-216
2024-09-16T12:17:32.248;599619616847143040;9678.865;82
2024-09-16T12:17:32.256;599619616854817792;9686.54;65
2024-09-16T12:17:32.264;599619616862492544;9694.215;-143
2024-09-16T12:17:32.271;599619616870167424;9701.89;-41
2024-09-16T12:17:32.279;599619616877842176;9709.563;24
2024-09-16T12:17:32.287;599619616885516928;9717.239;-53
2024-09-16T12:17:32.294;599619616893191808;9724.914;-34
2024-09-16T12:17:32.302;599619616900866560;9732.589;9
2024-09-16T12:17:32.310;599619616908541312;9740.264;-2
2024-09-16T12:17:32.317;599619616916216064;9747.938;2
2024-09-16T12:17:32.325;599619616923890944;9755.613;26
2024-09-16T12:17:32.333;599619616931565696;9763.288;34
2024-09-16T12:17:32.340;599619616939240448;9770.963;38
2024-09-16T12:17:32.348;599619616946915328;9778.638;53
2024-09-16T12:17:32.356;599619616954590080;9786.3125;65
2024-09-16T12:17:32.363;599619616962264832;9793.986;75
2024-09-16T12:17:32.371;599619616969939584;9801.661;90
2024-09-16T12:17:32.379;599619616977614464;9809.336;99
2024-09-16T12:17:32.387;599619616985289216;9817.011;116
2024-09-16T12:17:32.394;599619616992963968;9824.687;136
2024-09-16T12:17:32.402;599619617000638848;9832.361;150
2024-09-16T12:17:32.410;599619617008313600;9840.036;167
2024-09-16T12:17:32.417;599619617015988352;9847.711;187
2024-09-16T12:17:32.425;599619617023663232;9855.386;199
2024-09-16T12:17:32.433;599619617031337984;9863.061;209
2024-09-16T12:17:32.440;599619617039012736;9870.735;214
2024-09-16T12:17:32.448;599619617046687488;9878.409;216
2024-09-16T12:17:32.456;599619617054362368;9886.085;209
2024-09-16T12:17:32.463;599619617062037120;9893.759;192
2024-09-16T12:17:32.471;599619617069711872;9901.434;163
2024-09-16T12:17:32.479;599619617077386752;9909.108;128
2024-09-16T12:17:32.486;599619617085061504;9916.783;90
2024-09-16T12:17:32.494;599619617092736256;9924.458;55
2024-09-16T12:17:32.502;599619617100411008;9932.134;29
2024-09-16T12:17:32.509;599619617108085888;9939.809;9
2024-09-16T12:17:32.517;599619617115760640;9947.483;-7
2024-09-16T12:17:32.525;599619617123435392;9955.158;-14
2024-09-16T12:17:32.532;599619617131110272;9962.833;-19
2024-09-16T12:17:32.540;599619617138785024;9970.508;-21
2024-09-16T12:17:32.548;599619617146459776;9978.182;-19
2024-09-16T12:17:32.555;599619617154134528;9985.856;-14
2024-09-16T12:17:32.563;599619617161809408;9993.531;-12
2024-09-16T12:17:32.571;599619617169484160;10001.206;-7
2024-09-16T12:17:32.578;599619617177158912;10008.881;0
2024-09-16T12:17:32.586;599619617184833792;10016.556;4
2024-09-16T12:17:32.594;599619617192508544;10024.23;9
2024-09-16T12:17:32.601;599619617200183296;10031.906;19
2024-09-16T12:17:32.609;599619617207858176;10039.581;31
2024-09-16T12:17:32.617;599619617215532928;10047.256;34
2024-09-16T12:17:32.624;599619617223207680;10054.931;31
2024-09-16T12:17:32.632;599619617230882432;10062.6045;26
2024-09-16T12:17:32.640;599619617238557312;10070.279;29
2024-09-16T12:17:32.647;599619617246232148;10077.954;38
2024-09-16T12:17:32.655;599619617253906688;10085.629;43
2024-09-16T12:17:32.663;599619617261581184;10093.304;38
2024-09-16T12:17:32.670;599619617269255552;10100.978;34
2024-09-16T12:17:32.678;599619617276930048;10108.652;26
2024-09-16T12:17:32.686;599619617284604416;10116.326;26
2024-09-16T12:17:32.694;599619617292278912;10124.001;31
2024-09-16T12:17:32.701;599619617299953280;10131.675;34
2024-09-16T12:17:32.709;599619617307627776;10139.35;26
2024-09-16T12:17:32.717;599619617315302272;10147.024;26
2024-09-16T12:17:32.724;599619617322976640;10154.699;29
2024-09-16T12:17:32.732;599619617330651136;10162.374;29
2024-09-16T12:17:32.740;599619617338325504;10170.048;31
2024-09-16T12:17:32.747;599619617346000000;10177.723;26
2024-09-16T12:17:32.755;599619617353674368;10185.396;24
2024-09-16T12:17:32.763;599619617361348864;10193.071;34
2024-09-16T12:17:32.770;599619617369023360;10200.746;58
2024-09-16T12:17:32.778;599619617376697728;10208.42;90
2024-09-16T12:17:32.786;599619617384372224;10216.095;99
2024-09-16T12:17:32.793;599619617392046592;10223.769;80
2024-09-16T12:17:32.801;599619617399721088;10231.443;63
2024-09-16T12:17:32.809;599619617407395456;10239.117;58
2024-09-16T12:17:32.816;599619617415069952;10246.792;51
2024-09-16T12:17:32.824;599619617422744448;10254.467;36
2024-09-16T12:17:32.832;599619617430418816;10262.141;26
2024-09-16T12:17:32.839;599619617438093312;10269.815;31
2024-09-16T12:17:32.847;599619617445767680;10277.489;41
2024-09-16T12:17:32.855;599619617453442176;10285.164;43
2024-09-16T12:17:32.862;599619617461116544;10292.839;43
2024-09-16T12:17:32.870;599619617468791040;10300.514;46
2024-09-16T12:17:32.878;599619617476465536;10308.188;36
2024-09-16T12:17:32.885;599619617484139904;10315.862;31
2024-09-16T12:17:32.893;599619617491814400;10323.537;199
2024-09-16T12:17:32.901;599619617499488768;10331.211;761
2024-09-16T12:17:32.908;599619617507163264;10338.886;1394
2024-09-16T12:17:32.916;599619617514837632;10346.56;1126
2024-09-16T12:17:32.924;599619617522512128;10354.234;121
2024-09-16T12:17:32.931;599619617530186624;10361.909;-194
2024-09-16T12:17:32.939;599619617537860992;10369.583;85
2024-09-16T12:17:32.947;599619617545535488;10377.258;-7
2024-09-16T12:17:32.954;599619617553209856;10384.932;-155
2024-09-16T12:17:32.962;599619617560884352;10392.606;-41
2024-09-16T12:17:32.970;599619617568558720;10400.28;-19
2024-09-16T12:17:32.977;599619617576233216;10407.955;-68
2024-09-16T12:17:32.985;599619617583907584;10415.63;-29
2024-09-16T12:17:32.993;599619617591582080;10423.304;-19
2024-09-16T12:17:33.000;599619617599256576;10430.9795;-43
2024-09-16T12:17:33.008;599619617606930944;10438.653;-12
2024-09-16T12:17:33.016;599619617614605440;10446.328;24
2024-09-16T12:17:33.024;599619617622279808;10454.002;17
2024-09-16T12:17:33.031;599619617629954304;10461.677;12
2024-09-16T12:17:33.039;599619617637628672;10469.352;31
2024-09-16T12:17:33.047;599619617645303168;10477.025;41
2024-09-16T12:17:33.054;599619617652977664;10484.7;41
2024-09-16T12:17:33.062;599619617660652032;10492.374;55
2024-09-16T12:17:33.070;599619617668326528;10500.049;77
2024-09-16T12:17:33.077;599619617676000896;10507.723;90
2024-09-16T12:17:33.085;599619617683675392;10515.397;104
2024-09-16T12:17:33.093;599619617691349760;10523.072;119
2024-09-16T12:17:33.100;599619617699024256;10530.746;136
2024-09-16T12:17:33.108;599619617706698752;10538.421;150
2024-09-16T12:17:33.116;599619617714373120;10546.095;170
2024-09-16T12:17:33.123;599619617722047616;10553.77;189
2024-09-16T12:17:33.131;599619617729721984;10561.443;194
2024-09-16T12:17:33.139;599619617737396480;10569.119;189
2024-09-16T12:17:33.146;599619617745070848;10576.794;182
2024-09-16T12:17:33.154;599619617752745344;10584.468;170
2024-09-16T12:17:33.162;599619617760419840;10592.143;148
2024-09-16T12:17:33.169;599619617768094208;10599.816;116
2024-09-16T12:17:33.177;599619617775768704;10607.491;82
2024-09-16T12:17:33.185;599619617783443072;10615.165;48
2024-09-16T12:17:33.192;599619617791117568;10622.84;21
2024-09-16T12:17:33.200;599619617798791936;10630.515;0
2024-09-16T12:17:33.208;599619617806466333;10638.188;-9
2024-09-16T12:17:33.215;599619617814141056;10645.863;-17
2024-09-16T12:17:33.223;599619617821815808;10653.538;-19
2024-09-16T12:17:33.231;599619617829490432;10661.212;-17
2024-09-16T12:17:33.238;599619617837165184;10668.887;-17
2024-09-16T12:17:33.246;599619617844839936;10676.562;-14
2024-09-16T12:17:33.254;599619617852514688;10684.236;-9
2024-09-16T12:17:33.261;599619617860189312;10691.912;-2
2024-09-16T12:17:33.269;599619617867864064;10699.587;4
2024-09-16T12:17:33.277;599619617875538816;10707.262;7
2024-09-16T12:17:33.284;599619617883213568;10714.936;14
2024-09-16T12:17:33.292;599619617890888192;10722.61;21
2024-09-16T12:17:33.300;599619617898562944;10730.285;26
2024-09-16T12:17:33.307;599619617906237696;10737.96;26
2024-09-16T12:17:33.315;599619617913912448;10745.635;31
2024-09-16T12:17:33.323;599619617921587072;10753.31;41
2024-09-16T12:17:33.330;599619617929261824;10760.984;38
2024-09-16T12:17:33.338;599619617936936576;10768.658;34
2024-09-16T12:17:33.346;599619617944611328;10776.333;38
2024-09-16T12:17:33.354;599619617952285952;10784.008;41
2024-09-16T12:17:33.361;599619617959960704;10791.683;38
2024-09-16T12:17:33.369;599619617967635456;10799.358;38
2024-09-16T12:17:33.377;599619617975310208;10807.033;43
2024-09-16T12:17:33.384;599619617982984832;10814.707;51
2024-09-16T12:17:33.392;599619617990659584;10822.382;48
2024-09-16T12:17:33.400;599619617998334336;10830.057;38
2024-09-16T12:17:33.407;599619618006009088;10837.731;38
2024-09-16T12:17:33.415;599619618013683712;10845.406;46
2024-09-16T12:17:33.423;599619618021358464;10853.081;46
2024-09-16T12:17:33.430;599619618029033216;10860.755;43
2024-09-16T12:17:33.438;599619618036707968;10868.43;38
2024-09-16T12:17:33.446;599619618044382592;10876.1045;38
2024-09-16T12:17:33.453;599619618052057344;10883.779;43
2024-09-16T12:17:33.461;599619618059732096;10891.454;51
2024-09-16T12:17:33.469;599619618067406848;10899.129;48
2024-09-16T12:17:33.476;599619618075081472;10906.805;43
2024-09-16T12:17:33.484;599619618082756224;10914.479;46
2024-09-16T12:17:33.492;599619618090430976;10922.153;72
2024-09-16T12:17:33.499;599619618098105728;10929.828;104
2024-09-16T12:17:33.507;599619618105780352;10937.503;104
2024-09-16T12:17:33.515;599619618113455104;10945.178;77
2024-09-16T12:17:33.522;599619618121129856;10952.853;68
2024-09-16T12:17:33.530;599619618128804608;10960.527;75
2024-09-16T12:17:33.538;599619618136479232;10968.201;72
2024-09-16T12:17:33.545;599619618144153984;10975.876;60
2024-09-16T12:17:33.553;599619618151828736;10983.551;55
2024-09-16T12:17:33.561;599619618159503488;10991.226;55
2024-09-16T12:17:33.568;599619618167178112;10998.9;55
2024-09-16T12:17:33.576;599619618174852864;11006.574;58
2024-09-16T12:17:33.584;599619618182527616;11014.249;58
2024-09-16T12:17:33.591;599619618190202368;11021.925;53
2024-09-16T12:17:33.599;599619618197876992;11029.6;41
2024-09-16T12:17:33.607;599619618205551744;11037.274;77
2024-09-16T12:17:33.614;599619618213226496;11044.949;338
2024-09-16T12:17:33.622;599619618220901248;11052.624;963
2024-09-16T12:17:33.630;599619618228575872;11060.298;1433
2024-09-16T12:17:33.637;599619618236250624;11067.973;880
2024-09-16T12:17:33.645;599619618243925376;11075.647;-70
2024-09-16T12:17:33.653;599619618251600128;11083.322;-131
2024-09-16T12:17:33.660;599619618259274752;11090.997;145
2024-09-16T12:17:33.668;599619618266949504;11098.672;-31
2024-09-16T12:17:33.676;599619618274624256;11106.347;-124
2024-09-16T12:17:33.684;599619618282299008;11114.0205;12
2024-09-16T12:17:33.691;599619618289973632;11121.695;-4
2024-09-16T12:17:33.699;599619618297648384;11129.371;-60
2024-09-16T12:17:33.707;599619618305323136;11137.046;-9
2024-09-16T12:17:33.714;599619618312997888;11144.721;12
2024-09-16T12:17:33.722;599619618320672512;11152.395;-2
2024-09-16T12:17:33.730;599619618328347264;11160.069;14
2024-09-16T12:17:33.737;599619618336022016;11167.744;26
2024-09-16T12:17:33.745;599619618343696768;11175.419;26
2024-09-16T12:17:33.753;599619618351371392;11183.094;43
2024-09-16T12:17:33.760;599619618359046144;11190.769;60
2024-09-16T12:17:33.768;599619618366720862;11198.443;65
2024-09-16T12:17:33.776;599619618374395520;11206.117;77
2024-09-16T12:17:33.783;599619618382070144;11213.792;97
2024-09-16T12:17:33.791;599619618389744640;11221.467;104
2024-09-16T12:17:33.799;599619618397419264;11229.141;116
2024-09-16T12:17:33.806;599619618405093888;11236.815;131
2024-09-16T12:17:33.814;599619618412768384;11244.491;148
2024-09-16T12:17:33.822;599619618420443008;11252.166;170
2024-09-16T12:17:33.829;599619618428117632;11259.84;184
2024-09-16T12:17:33.837;599619618435792128;11267.515;197
2024-09-16T12:17:33.845;599619618443466752;11275.189;209
2024-09-16T12:17:33.852;599619618451141376;11282.864;209
2024-09-16T12:17:33.860;599619618458815872;11290.538;209
2024-09-16T12:17:33.868;599619618466490496;11298.213;206
2024-09-16T12:17:33.875;599619618474165120;11305.888;192
2024-09-16T12:17:33.883;599619618481839616;11313.562;163
2024-09-16T12:17:33.891;599619618489514240;11321.236;128
2024-09-16T12:17:33.898;599619618497188864;11328.911;90
2024-09-16T12:17:33.906;599619618504863360;11336.585;51
2024-09-16T12:17:33.914;599619618512537984;11344.26;26
2024-09-16T12:17:33.921;599619618520212608;11351.935;12
2024-09-16T12:17:33.929;599619618527887104;11359.608;-4
2024-09-16T12:17:33.937;599619618535561728;11367.284;-14
2024-09-16T12:17:33.944;599619618543236224;11374.959;-14
2024-09-16T12:17:33.952;599619618550910848;11382.634;-19
2024-09-16T12:17:33.960;599619618558585472;11390.308;-21
2024-09-16T12:17:33.967;599619618566259968;11397.982;-14
2024-09-16T12:17:33.975;599619618573934592;11405.657;-4
2024-09-16T12:17:33.983;599619618581609216;11413.332;2
2024-09-16T12:17:33.991;599619618589283712;11421.006;4
2024-09-16T12:17:33.998;599619618596958336;11428.681;7
2024-09-16T12:17:34.006;599619618604632960;11436.355;14
2024-09-16T12:17:34.014;599619618612307456;11444.029;21
2024-09-16T12:17:34.021;599619618619982080;11451.704;34
2024-09-16T12:17:34.029;599619618627656704;11459.379;43
2024-09-16T12:17:34.037;599619618635331200;11467.053;48
2024-09-16T12:17:34.044;599619618643005824;11474.728;43
2024-09-16T12:17:34.052;599619618650680448;11482.402;41
2024-09-16T12:17:34.060;599619618658354944;11490.077;38
2024-09-16T12:17:34.067;599619618666029568;11497.752;38
2024-09-16T12:17:34.075;599619618673704192;11505.427;36
2024-09-16T12:17:34.083;599619618681378688;11513.102;36
2024-09-16T12:17:34.090;599619618689053312;11520.775;36
2024-09-16T12:17:34.098;599619618696727936;11528.45;31
2024-09-16T12:17:34.106;599619618704402432;11536.125;26
2024-09-16T12:17:34.113;599619618712077056;11543.8;36
2024-09-16T12:17:34.121;599619618719751680;11551.474;46
2024-09-16T12:17:34.129;599619618727426176;11559.148;41
2024-09-16T12:17:34.136;599619618735100800;11566.823;31
2024-09-16T12:17:34.144;599619618742775424;11574.497;34
2024-09-16T12:17:34.152;599619618750449920;11582.172;38
2024-09-16T12:17:34.159;599619618758124544;11589.847;38
2024-09-16T12:17:34.167;599619618765799168;11597.5205;41
2024-09-16T12:17:34.175;599619618773473664;11605.195;36
2024-09-16T12:17:34.182;599619618781148288;11612.871;34
2024-09-16T12:17:34.190;599619618788822912;11620.546;36
2024-09-16T12:17:34.198;599619618796497408;11628.22;53
2024-09-16T12:17:34.205;599619618804172032;11635.895;87
2024-09-16T12:17:34.213;599619618811846656;11643.569;109
2024-09-16T12:17:34.221;599619618819521152;11651.243;94
2024-09-16T12:17:34.228;599619618827195776;11658.918;80
2024-09-16T12:17:34.236;599619618834870272;11666.593;70
2024-09-16T12:17:34.244;599619618842544896;11674.268;65
2024-09-16T12:17:34.251;599619618850219520;11681.941;72
2024-09-16T12:17:34.259;599619618857894016;11689.616;77
2024-09-16T12:17:34.267;599619618865568640;11697.291;70
2024-09-16T12:17:34.274;599619618873243264;11704.965;68
2024-09-16T12:17:34.282;599619618880917760;11712.64;63
2024-09-16T12:17:34.290;599619618888592384;11720.314;58
2024-09-16T12:17:34.297;599619618896267008;11727.988;77
2024-09-16T12:17:34.305;599619618903941504;11735.664;150
2024-09-16T12:17:34.313;599619618911616128;11743.339;262
2024-09-16T12:17:34.321;599619618919290752;11751.014;476
2024-09-16T12:17:34.328;599619618926965221;11758.6875;997
2024-09-16T12:17:34.336;599619618934639744;11766.362;1559
2024-09-16T12:17:34.344;599619618942314240;11774.036;1194
2024-09-16T12:17:34.351;599619618949988608;11781.711;107
2024-09-16T12:17:34.359;599619618957663104;11789.386;-124
2024-09-16T12:17:34.367;599619618965337472;11797.06;326
2024-09-16T12:17:34.374;599619618973011968;11804.734;250
2024-09-16T12:17:34.382;599619618980686336;11812.408;2
2024-09-16T12:17:34.390;599619618988360832;11820.083;63
2024-09-16T12:17:34.397;599619618996035328;11827.757;70
2024-09-16T12:17:34.405;599619619003709696;11835.432;-12
2024-09-16T12:17:34.413;599619619011384192;11843.106;0
2024-09-16T12:17:34.420;599619619019058560;11850.78;26
2024-09-16T12:17:34.428;599619619026733056;11858.455;21
2024-09-16T12:17:34.436;599619619034407424;11866.13;34
2024-09-16T12:17:34.443;599619619042081920;11873.805;55
2024-09-16T12:17:34.451;599619619049756416;11881.479;99
2024-09-16T12:17:34.459;599619619057430784;11889.153;165
2024-09-16T12:17:34.466;599619619065105280;11896.828;201
2024-09-16T12:17:34.474;599619619072779648;11904.502;199
2024-09-16T12:17:34.482;599619619080454144;11912.177;158
2024-09-16T12:17:34.489;599619619088128512;11919.851;121
2024-09-16T12:17:34.497;599619619095803008;11927.525;143
2024-09-16T12:17:34.505;599619619103477504;11935.199;167
2024-09-16T12:17:34.512;599619619111151872;11942.874;143
2024-09-16T12:17:34.520;599619619118826368;11950.549;131
2024-09-16T12:17:34.528;599619619126500736;11958.223;150
2024-09-16T12:17:34.535;599619619134175232;11965.897;158
2024-09-16T12:17:34.543;599619619141849600;11973.571;160
2024-09-16T12:17:34.551;599619619149524096;11981.246;170
2024-09-16T12:17:34.558;599619619157198592;11988.92;167
2024-09-16T12:17:34.566;599619619164872960;11996.595;158
2024-09-16T12:17:34.574;599619619172547456;12004.2705;150
2024-09-16T12:17:34.581;599619619180221824;12011.944;133
2024-09-16T12:17:34.589;599619619187896320;12019.619;107
2024-09-16T12:17:34.597;599619619195570688;12027.293;72
2024-09-16T12:17:34.604;599619619203245184;12034.968;31
2024-09-16T12:17:34.612;599619619210919680;12042.642;0
2024-09-16T12:17:34.620;599619619218594048;12050.316;-24
2024-09-16T12:17:34.627;599619619226268544;12057.991;-46
2024-09-16T12:17:34.635;599619619233942912;12065.665;-60
2024-09-16T12:17:34.643;599619619241617408;12073.34;-68
2024-09-16T12:17:34.651;599619619249291776;12081.014;-75
2024-09-16T12:17:34.658;599619619256966272;12088.688;-77
2024-09-16T12:17:34.666;599619619264640640;12096.362;-75
2024-09-16T12:17:34.674;599619619272315136;12104.037;-68
2024-09-16T12:17:34.681;599619619279989632;12111.712;-53
2024-09-16T12:17:34.689;599619619287664000;12119.386;-38
2024-09-16T12:17:34.697;599619619295338496;12127.061;-34
2024-09-16T12:17:34.704;599619619303012864;12134.734;-34
2024-09-16T12:17:34.712;599619619310687360;12142.41;-24
2024-09-16T12:17:34.720;599619619318361728;12150.084;-14
2024-09-16T12:17:34.727;599619619326036224;12157.759;-12
2024-09-16T12:17:34.735;599619619333710720;12165.434;-4
2024-09-16T12:17:34.743;599619619341385088;12173.107;4
2024-09-16T12:17:34.750;599619619349059584;12180.782;7
2024-09-16T12:17:34.758;599619619356733952;12188.456;4
2024-09-16T12:17:34.766;599619619364408448;12196.131;7
2024-09-16T12:17:34.773;599619619372082816;12203.805;9
2024-09-16T12:17:34.781;599619619379757312;12211.4795;14
2024-09-16T12:17:34.789;599619619387431808;12219.154;21
2024-09-16T12:17:34.796;599619619395106176;12226.828;29
2024-09-16T12:17:34.804;599619619402780672;12234.503;34
2024-09-16T12:17:34.812;599619619410455040;12242.177;31
2024-09-16T12:17:34.819;599619619418129536;12249.852;29
2024-09-16T12:17:34.827;599619619425803904;12257.525;36
2024-09-16T12:17:34.835;599619619433478400;12265.2;34
2024-09-16T12:17:34.842;599619619441152896;12272.876;29
2024-09-16T12:17:34.850;599619619448827264;12280.55;31
2024-09-16T12:17:34.858;599619619456501760;12288.225;34
2024-09-16T12:17:34.865;599619619464176128;12295.898;34
2024-09-16T12:17:34.873;599619619471850624;12303.573;36
2024-09-16T12:17:34.881;599619619479524992;12311.247;36
2024-09-16T12:17:34.888;599619619487199406;12318.922;34
2024-09-16T12:17:34.896;599619619494874240;12326.597;31
2024-09-16T12:17:34.904;599619619502549120;12334.271;31
2024-09-16T12:17:34.911;599619619510224000;12341.946;38
2024-09-16T12:17:34.919;599619619517898880;12349.621;75
2024-09-16T12:17:34.927;599619619525573632;12357.296;126
2024-09-16T12:17:34.934;599619619533248512;12364.971;180
2024-09-16T12:17:34.942;599619619540923392;12372.6455;204
2024-09-16T12:17:34.950;599619619548598272;12380.32;158
2024-09-16T12:17:34.957;599619619556273152;12387.996;97
2024-09-16T12:17:34.965;599619619563948032;12395.671;85
2024-09-16T12:17:34.973;599619619571622784;12403.346;82
2024-09-16T12:17:34.981;599619619579297664;12411.0205;60
2024-09-16T12:17:34.988;599619619586972544;12418.695;48
2024-09-16T12:17:34.996;599619619594647424;12426.37;46
2024-09-16T12:17:35.004;599619619602322304;12434.045;46
2024-09-16T12:17:35.011;599619619609997184;12441.72;51
2024-09-16T12:17:35.019;599619619617671936;12449.395;53
2024-09-16T12:17:35.027;599619619625346816;12457.068;48
2024-09-16T12:17:35.034;599619619633021696;12464.744;36
2024-09-16T12:17:35.042;599619619640696576;12472.418;41
2024-09-16T12:17:35.050;599619619648371456;12480.094;214
2024-09-16T12:17:35.057;599619619656046336;12487.768;759
2024-09-16T12:17:35.065;599619619663721088;12495.443;1384
2024-09-16T12:17:35.073;599619619671395968;12503.118;1141
2024-09-16T12:17:35.080;599619619679070848;12510.793;148
2024-09-16T12:17:35.088;599619619686745728;12518.468;-184
2024-09-16T12:17:35.096;599619619694420608;12526.143;87
2024-09-16T12:17:35.103;599619619702095488;12533.817;-9
2024-09-16T12:17:35.111;599619619709770240;12541.492;-155
2024-09-16T12:17:35.119;599619619717445120;12549.167;-31
2024-09-16T12:17:35.126;599619619725120000;12556.842;-7
2024-09-16T12:17:35.134;599619619732794880;12564.517;-68
2024-09-16T12:17:35.142;599619619740469760;12572.191;-34
2024-09-16T12:17:35.149;599619619748144640;12579.866;-4
2024-09-16T12:17:35.157;599619619755819392;12587.542;-17
2024-09-16T12:17:35.165;599619619763494272;12595.217;-4
2024-09-16T12:17:35.172;599619619771169152;12602.892;9
2024-09-16T12:17:35.180;599619619778844032;12610.566;9
2024-09-16T12:17:35.188;599619619786518912;12618.241;19
2024-09-16T12:17:35.195;599619619794193792;12625.916;36
2024-09-16T12:17:35.203;599619619801868544;12633.591;43
2024-09-16T12:17:35.211;599619619809543424;12641.266;58
2024-09-16T12:17:35.218;599619619817218304;12648.94;72
2024-09-16T12:17:35.226;599619619824893184;12656.615;80
2024-09-16T12:17:35.234;599619619832568064;12664.29;92
2024-09-16T12:17:35.241;599619619840242944;12671.965;114
2024-09-16T12:17:35.249;599619619847917696;12679.64;128
2024-09-16T12:17:35.257;599619619855592576;12687.315;145
2024-09-16T12:17:35.264;599619619863267456;12694.99;163
2024-09-16T12:17:35.272;599619619870942336;12702.665;177
2024-09-16T12:17:35.280;599619619878617216;12710.34;189
2024-09-16T12:17:35.288;599619619886292096;12718.015;199
2024-09-16T12:17:35.295;599619619893966848;12725.689;199
2024-09-16T12:17:35.303;599619619901641728;12733.364;194
2024-09-16T12:17:35.311;599619619909316608;12741.039;184
2024-09-16T12:17:35.318;599619619916991488;12748.714;167
2024-09-16T12:17:35.326;599619619924666368;12756.389;128
2024-09-16T12:17:35.334;599619619932341248;12764.063;90
2024-09-16T12:17:35.341;599619619940016000;12771.738;55
2024-09-16T12:17:35.349;599619619947690880;12779.413;26
2024-09-16T12:17:35.357;599619619955365760;12787.089;4
2024-09-16T12:17:35.364;599619619963040640;12794.764;-9
2024-09-16T12:17:35.372;599619619970715520;12802.438;-19
2024-09-16T12:17:35.380;599619619978390400;12810.113;-24
2024-09-16T12:17:35.387;599619619986065152;12817.787;-24
2024-09-16T12:17:35.395;599619619993740032;12825.463;-26
2024-09-16T12:17:35.403;599619620001414912;12833.137;-26
2024-09-16T12:17:35.410;599619620009089792;12840.8125;-21
2024-09-16T12:17:35.418;599619620016764672;12848.486;-17
2024-09-16T12:17:35.426;599619620024439552;12856.162;-9
2024-09-16T12:17:35.433;599619620032114304;12863.836;0
2024-09-16T12:17:35.441;599619620039789184;12871.511;7
2024-09-16T12:17:35.449;599619620047464109;12879.186;9
2024-09-16T12:17:35.456;599619620055138560;12886.86;14
2024-09-16T12:17:35.464;599619620062813056;12894.536;21
2024-09-16T12:17:35.472;599619620070487424;12902.21;26
2024-09-16T12:17:35.479;599619620078161920;12909.885;31
2024-09-16T12:17:35.487;599619620085836288;12917.559;31
2024-09-16T12:17:35.495;599619620093510784;12925.233;29
2024-09-16T12:17:35.502;599619620101185152;12932.907;29
2024-09-16T12:17:35.510;599619620108859648;12940.582;34
2024-09-16T12:17:35.518;599619620116534144;12948.257;31
2024-09-16T12:17:35.525;599619620124208512;12955.931;26
2024-09-16T12:17:35.533;599619620131883008;12963.605;24
2024-09-16T12:17:35.541;599619620139557376;12971.279;19
2024-09-16T12:17:35.548;599619620147231872;12978.954;21
2024-09-16T12:17:35.556;599619620154906240;12986.628;26
2024-09-16T12:17:35.564;599619620162580736;12994.303;26
2024-09-16T12:17:35.571;599619620170255232;13001.978;21
2024-09-16T12:17:35.579;599619620177929600;13009.651;19
2024-09-16T12:17:35.587;599619620185604096;13017.326;19
2024-09-16T12:17:35.595;599619620193278464;13025.0;21
2024-09-16T12:17:35.602;599619620200952960;13032.676;24
2024-09-16T12:17:35.610;599619620208627328;13040.35;24
2024-09-16T12:17:35.618;599619620216301824;13048.024;24
2024-09-16T12:17:35.625;599619620223976320;13055.699;24
2024-09-16T12:17:35.633;599619620231650688;13063.373;17
2024-09-16T12:17:35.641;599619620239325184;13071.048;7
2024-09-16T12:17:35.648;599619620246999552;13078.722;9
2024-09-16T12:17:35.656;599619620254674048;13086.396;29
2024-09-16T12:17:35.664;599619620262348416;13094.07;53
2024-09-16T12:17:35.671;599619620270022912;13101.745;85
2024-09-16T12:17:35.679;599619620277697408;13109.42;107
2024-09-16T12:17:35.687;599619620285371776;13117.094;97
2024-09-16T12:17:35.694;599619620293046272;13124.769;77
2024-09-16T12:17:35.702;599619620300720640;13132.442;63
2024-09-16T12:17:35.710;599619620308395136;13140.117;51
2024-09-16T12:17:35.717;599619620316069504;13147.791;41
2024-09-16T12:17:35.725;599619620323744000;13155.466;38
2024-09-16T12:17:35.733;599619620331418496;13163.142;43
2024-09-16T12:17:35.740;599619620339092864;13170.815;41
2024-09-16T12:17:35.748;599619620346767360;13178.49;38
2024-09-16T12:17:35.756;599619620354441728;13186.164;46
2024-09-16T12:17:35.763;599619620362116224;13193.839;53
2024-09-16T12:17:35.771;599619620369790592;13201.513;46
2024-09-16T12:17:35.779;599619620377465088;13209.1875;26
2024-09-16T12:17:35.786;599619620385139456;13216.862;92
2024-09-16T12:17:35.794;599619620392813952;13224.536;459
2024-09-16T12:17:35.802;599619620400488448;13232.211;1141
2024-09-16T12:17:35.809;599619620408162816;13239.885;1377
2024-09-16T12:17:35.817;599619620415837312;13247.56;581
2024-09-16T12:17:35.825;599619620423511680;13255.233;-167
2024-09-16T12:17:35.832;599619620431186176;13262.908;-26
2024-09-16T12:17:35.840;599619620438860544;13270.583;97
2024-09-16T12:17:35.848;599619620446535040;13278.257;-116
2024-09-16T12:17:35.855;599619620454209536;13285.932;-92
2024-09-16T12:17:35.863;599619620461883904;13293.605;19
2024-09-16T12:17:35.871;599619620469558400;13301.281;-36
2024-09-16T12:17:35.878;599619620477232768;13308.955;-53
2024-09-16T12:17:35.886;599619620484907264;13316.63;-4
2024-09-16T12:17:35.894;599619620492581632;13324.305;0
2024-09-16T12:17:35.901;599619620500256128;13331.979;-2
2024-09-16T12:17:35.909;599619620507930624;13339.653;19
2024-09-16T12:17:35.917;599619620515604992;13347.327;24
2024-09-16T12:17:35.925;599619620523279488;13355.002;21
2024-09-16T12:17:35.932;599619620530953856;13362.676;34
2024-09-16T12:17:35.940;599619620538628352;13370.351;48
2024-09-16T12:17:35.948;599619620546302720;13378.025;63
2024-09-16T12:17:35.955;599619620553977216;13385.699;80
2024-09-16T12:17:35.963;599619620561651712;13393.374;90
2024-09-16T12:17:35.971;599619620569326080;13401.048;99
2024-09-16T12:17:35.978;599619620577000576;13408.723;126
2024-09-16T12:17:35.986;599619620584674944;13416.396;153
2024-09-16T12:17:35.994;599619620592349440;13424.071;163
2024-09-16T12:17:36.001;599619620600023808;13431.746;180
2024-09-16T12:17:36.009;599619620607698294;13439.421;206
2024-09-16T12:17:36.017;599619620615373184;13447.096;223
2024-09-16T12:17:36.024;599619620623048064;13454.7705;221
2024-09-16T12:17:36.032;599619620630722944;13462.445;218
2024-09-16T12:17:36.040;599619620638397824;13470.12;216
2024-09-16T12:17:36.047;599619620646072576;13477.795;204
2024-09-16T12:17:36.055;599619620653747456;13485.47;184
2024-09-16T12:17:36.063;599619620661422336;13493.145;158
2024-09-16T12:17:36.070;599619620669097216;13500.819;124
2024-09-16T12:17:36.078;599619620676772096;13508.494;85
2024-09-16T12:17:36.086;599619620684446976;13516.169;58
2024-09-16T12:17:36.093;599619620692121728;13523.844;36
2024-09-16T12:17:36.101;599619620699796608;13531.519;14
2024-09-16T12:17:36.109;599619620707471488;13539.194;4
2024-09-16T12:17:36.116;599619620715146368;13546.869;4
2024-09-16T12:17:36.124;599619620722821248;13554.544;2
2024-09-16T12:17:36.132;599619620730496128;13562.219;0
2024-09-16T12:17:36.139;599619620738170880;13569.894;2
2024-09-16T12:17:36.147;599619620745845760;13577.568;9
2024-09-16T12:17:36.155;599619620753520640;13585.243;14
2024-09-16T12:17:36.162;599619620761195520;13592.918;14
2024-09-16T12:17:36.170;599619620768870400;13600.593;14
2024-09-16T12:17:36.178;599619620776545280;13608.268;19
2024-09-16T12:17:36.185;599619620784220032;13615.942;29
2024-09-16T12:17:36.193;599619620791894912;13623.617;38
2024-09-16T12:17:36.201;599619620799569792;13631.292;41
2024-09-16T12:17:36.208;599619620807244672;13638.968;46
2024-09-16T12:17:36.216;599619620814919552;13646.643;51
2024-09-16T12:17:36.224;599619620822594432;13654.317;53
2024-09-16T12:17:36.231;599619620830269184;13661.991;46
2024-09-16T12:17:36.239;599619620837944064;13669.667;46
2024-09-16T12:17:36.247;599619620845618944;13677.341;55
2024-09-16T12:17:36.255;599619620853293824;13685.017;51
2024-09-16T12:17:36.262;599619620860968704;13692.69;46
2024-09-16T12:17:36.270;599619620868643584;13700.366;55
2024-09-16T12:17:36.278;599619620876318336;13708.04;58
2024-09-16T12:17:36.285;599619620883993216;13715.715;43
2024-09-16T12:17:36.293;599619620891668096;13723.39;43
2024-09-16T12:17:36.301;599619620899342976;13731.064;55
2024-09-16T12:17:36.308;599619620907017856;13738.739;55
2024-09-16T12:17:36.316;599619620914692736;13746.415;51
2024-09-16T12:17:36.324;599619620922367488;13754.09;48
2024-09-16T12:17:36.331;599619620930042368;13761.765;43
2024-09-16T12:17:36.339;599619620937717248;13769.439;43
2024-09-16T12:17:36.347;599619620945392128;13777.114;55
2024-09-16T12:17:36.354;599619620953067008;13784.789;60
2024-09-16T12:17:36.362;599619620960741888;13792.464;53
2024-09-16T12:17:36.370;599619620968416640;13800.139;48
2024-09-16T12:17:36.377;599619620976091520;13807.813;53
2024-09-16T12:17:36.385;599619620983766400;13815.488;51
2024-09-16T12:17:36.393;599619620991441280;13823.163;46
2024-09-16T12:17:36.400;599619620999116160;13830.838;53
2024-09-16T12:17:36.408;599619621006791040;13838.513;68
2024-09-16T12:17:36.416;599619621014465792;13846.188;97
2024-09-16T12:17:36.423;599619621022140672;13853.863;121
2024-09-16T12:17:36.431;599619621029815552;13861.538;109
2024-09-16T12:17:36.439;599619621037490432;13869.213;80
2024-09-16T12:17:36.446;599619621045165312;13876.888;68
2024-09-16T12:17:36.454;599619621052840192;13884.5625;60
2024-09-16T12:17:36.462;599619621060514944;13892.237;51
2024-09-16T12:17:36.469;599619621068189824;13899.912;41
2024-09-16T12:17:36.477;599619621075864704;13907.587;41
2024-09-16T12:17:36.485;599619621083539584;13915.262;46
2024-09-16T12:17:36.492;599619621091214464;13922.937;48
2024-09-16T12:17:36.500;599619621098889344;13930.611;46
2024-09-16T12:17:36.508;599619621106564096;13938.286;48
2024-09-16T12:17:36.515;599619621114238976;13945.962;41
2024-09-16T12:17:36.523;599619621121913856;13953.637;29
2024-09-16T12:17:36.531;599619621129588736;13961.312;165
2024-09-16T12:17:36.538;599619621137263616;13968.986;674
2024-09-16T12:17:36.546;599619621144938496;13976.661;1362
2024-09-16T12:17:36.554;599619621152613248;13984.336;1255
2024-09-16T12:17:36.562;599619621160288128;13992.011;226
2024-09-16T12:17:36.569;599619621167962997;13999.686;-248
2024-09-16T12:17:36.577;599619621175637504;14007.359;85
2024-09-16T12:17:36.585;599619621183312000;14015.034;77
2024-09-16T12:17:36.592;599619621190986368;14022.708;-143
2024-09-16T12:17:36.600;599619621198660864;14030.383;-38
2024-09-16T12:17:36.608;599619621206335232;14038.057;31
2024-09-16T12:17:36.615;599619621214009728;14045.731;-55
2024-09-16T12:17:36.623;599619621221684096;14053.406;-41
2024-09-16T12:17:36.631;599619621229358592;14061.081;14
2024-09-16T12:17:36.638;599619621237033088;14068.756;2
2024-09-16T12:17:36.646;599619621244707456;14076.43;4
2024-09-16T12:17:36.654;599619621252381952;14084.1045;26
2024-09-16T12:17:36.661;599619621260056320;14091.778;26
2024-09-16T12:17:36.669;599619621267730816;14099.453;29
2024-09-16T12:17:36.677;599619621275405184;14107.128;41
2024-09-16T12:17:36.684;599619621283079680;14114.802;53
2024-09-16T12:17:36.692;599619621290754176;14122.477;72
2024-09-16T12:17:36.700;599619621298428544;14130.15;87
2024-09-16T12:17:36.707;599619621306103040;14137.825;92
2024-09-16T12:17:36.715;599619621313777408;14145.499;102
2024-09-16T12:17:36.723;599619621321451904;14153.174;124
2024-09-16T12:17:36.730;599619621329126272;14160.849;145
2024-09-16T12:17:36.738;599619621336800768;14168.522;163
2024-09-16T12:17:36.746;599619621344475264;14176.197;175
2024-09-16T12:17:36.753;599619621352149632;14183.871;194
2024-09-16T12:17:36.761;599619621359824128;14191.546;211
2024-09-16T12:17:36.769;599619621367498496;14199.221;216
2024-09-16T12:17:36.776;599619621375172992;14206.8955;214
2024-09-16T12:17:36.784;599619621382847360;14214.57;209
2024-09-16T12:17:36.792;599619621390521856;14222.244;197
2024-09-16T12:17:36.799;599619621398196352;14229.919;172
2024-09-16T12:17:36.807;599619621405870720;14237.593;145
2024-09-16T12:17:36.815;599619621413545216;14245.268;111
2024-09-16T12:17:36.822;599619621421219584;14252.941;72
2024-09-16T12:17:36.830;599619621428894080;14260.616;36
2024-09-16T12:17:36.838;599619621436568448;14268.291;9
2024-09-16T12:17:36.845;599619621444242944;14275.965;-9
2024-09-16T12:17:36.853;599619621451917440;14283.64;-19
2024-09-16T12:17:36.861;599619621459591808;14291.313;-26
2024-09-16T12:17:36.868;599619621467266304;14298.988;-31
2024-09-16T12:17:36.876;599619621474940672;14306.662;-31
2024-09-16T12:17:36.884;599619621482615168;14314.337;-29
2024-09-16T12:17:36.892;599619621490289536;14322.012;-24
2024-09-16T12:17:36.899;599619621497964032;14329.686;-19
2024-09-16T12:17:36.907;599619621505638400;14337.361;-14
2024-09-16T12:17:36.915;599619621513312896;14345.035;-9
2024-09-16T12:17:36.922;599619621520987392;14352.71;-4
2024-09-16T12:17:36.930;599619621528661760;14360.384;-2
2024-09-16T12:17:36.938;599619621536336256;14368.059;0
2024-09-16T12:17:36.945;599619621544010624;14375.733;7
2024-09-16T12:17:36.953;599619621551685120;14383.407;12
2024-09-16T12:17:36.961;599619621559359488;14391.082;14
2024-09-16T12:17:36.968;599619621567033984;14398.756;14
2024-09-16T12:17:36.976;599619621574708480;14406.431;12
2024-09-16T12:17:36.984;599619621582382848;14414.1045;9
2024-09-16T12:17:36.991;599619621590057344;14421.779;9
2024-09-16T12:17:36.999;599619621597731712;14429.454;7
2024-09-16T12:17:37.007;599619621605406208;14437.128;2
2024-09-16T12:17:37.014;599619621613080576;14444.803;4
2024-09-16T12:17:37.022;599619621620755072;14452.477;7
2024-09-16T12:17:37.030;599619621628429568;14460.151;7
2024-09-16T12:17:37.037;599619621636103936;14467.825;7
2024-09-16T12:17:37.045;599619621643778432;14475.501;7
2024-09-16T12:17:37.053;599619621651452800;14483.176;4
2024-09-16T12:17:37.060;599619621659127296;14490.85;0
2024-09-16T12:17:37.068;599619621666801664;14498.524;4
2024-09-16T12:17:37.076;599619621674476160;14506.198;19
2024-09-16T12:17:37.083;599619621682150656;14513.873;26
2024-09-16T12:17:37.091;599619621689825024;14521.547;19
2024-09-16T12:17:37.099;599619621697499520;14529.222;9
2024-09-16T12:17:37.106;599619621705173888;14536.896;4
2024-09-16T12:17:37.114;599619621712848384;14544.57;7
2024-09-16T12:17:37.122;599619621720522752;14552.245;36
2024-09-16T12:17:37.129;599619621728197182;14559.919;85
2024-09-16T12:17:37.137;599619621735871616;14567.594;97
2024-09-16T12:17:37.145;599619621743546112;14575.268;55
2024-09-16T12:17:37.152;599619621751220480;14582.942;24
2024-09-16T12:17:37.160;599619621758894976;14590.617;19
2024-09-16T12:17:37.168;599619621766569344;14598.291;9
2024-09-16T12:17:37.175;599619621774243840;14605.967;0
2024-09-16T12:17:37.183;599619621781918208;14613.641;0
2024-09-16T12:17:37.191;599619621789592704;14621.315;0
2024-09-16T12:17:37.198;599619621797267200;14628.989;-7
2024-09-16T12:17:37.206;599619621804941568;14636.664;-7
2024-09-16T12:17:37.214;599619621812616064;14644.339;-2
2024-09-16T12:17:37.222;599619621820290432;14652.013;-9
2024-09-16T12:17:37.229;599619621827964928;14659.6875;-24
2024-09-16T12:17:37.237;599619621835639296;14667.361;87
2024-09-16T12:17:37.245;599619621843313792;14675.036;554
2024-09-16T12:17:37.252;599619621850988288;14682.71;1275
2024-09-16T12:17:37.260;599619621858662656;14690.385;1316
2024-09-16T12:17:37.268;599619621866337152;14698.06;345
2024-09-16T12:17:37.275;599619621874011520;14705.733;-257
2024-09-16T12:17:37.283;599619621881686016;14713.408;4
2024-09-16T12:17:37.291;599619621889360384;14721.082;38
2024-09-16T12:17:37.298;599619621897034880;14728.757;-187
2024-09-16T12:17:37.306;599619621904709376;14736.431;-111
2024-09-16T12:17:37.314;599619621912383744;14744.106;-24
2024-09-16T12:17:37.321;599619621920058240;14751.781;-92
2024-09-16T12:17:37.329;599619621927732608;14759.455;-87
2024-09-16T12:17:37.337;599619621935407104;14767.13;-36
2024-09-16T12:17:37.344;599619621943081472;14774.804;-38
2024-09-16T12:17:37.352;599619621950755968;14782.479;-38
2024-09-16T12:17:37.360;599619621958430464;14790.152;-14
2024-09-16T12:17:37.367;599619621966104832;14797.827;-2
2024-09-16T12:17:37.375;599619621973779328;14805.502;0
2024-09-16T12:17:37.383;599619621981453696;14813.176;9
2024-09-16T12:17:37.390;599619621989128192;14820.851;24
2024-09-16T12:17:37.398;599619621996802560;14828.524;34
2024-09-16T12:17:37.406;599619622004477056;14836.199;46
2024-09-16T12:17:37.413;599619622012151552;14843.873;60
2024-09-16T12:17:37.421;599619622019825920;14851.548;75
2024-09-16T12:17:37.429;599619622027500416;14859.223;92
2024-09-16T12:17:37.436;599619622035174784;14866.896;111
2024-09-16T12:17:37.444;599619622042849280;14874.571;128
2024-09-16T12:17:37.452;599619622050523648;14882.246;155
2024-09-16T12:17:37.459;599619622058198144;14889.921;177
2024-09-16T12:17:37.467;599619622065872512;14897.595;187
2024-09-16T12:17:37.475;599619622073547008;14905.27;197
2024-09-16T12:17:37.482;599619622081221504;14912.944;204
2024-09-16T12:17:37.490;599619622088895872;14920.618;197
2024-09-16T12:17:37.498;599619622096570368;14928.293;182
2024-09-16T12:17:37.505;599619622104244736;14935.967;163
2024-09-16T12:17:37.513;599619622111919232;14943.642;133
2024-09-16T12:17:37.521;599619622119593600;14951.315;94
2024-09-16T12:17:37.528;599619622127268096;14958.99;58
2024-09-16T12:17:37.536;599619622134942592;14966.665;29
2024-09-16T12:17:37.544;599619622142616960;14974.339;7
2024-09-16T12:17:37.552;599619622150291456;14982.014;-9
2024-09-16T12:17:37.559;599619622157965824;14989.6875;-17
2024-09-16T12:17:37.567;599619622165640320;14997.362;-21
2024-09-16T12:17:37.575;599619622173314688;15005.036;-24
2024-09-16T12:17:37.582;599619622180989184;15012.711;-29
2024-09-16T12:17:37.590;599619622188663680;15020.387;-21
2024-09-16T12:17:37.598;599619622196338048;15028.061;-9
2024-09-16T12:17:37.605;599619622204012544;15035.735;-9
2024-09-16T12:17:37.613;599619622211686912;15043.409;-12
2024-09-16T12:17:37.621;599619622219361408;15051.084;-2
2024-09-16T12:17:37.628;599619622227035776;15058.758;-2
2024-09-16T12:17:37.636;599619622234710272;15066.433;2
2024-09-16T12:17:37.644;599619622242384768;15074.107;24
2024-09-16T12:17:37.651;599619622250059136;15081.781;34
2024-09-16T12:17:37.659;599619622257733632;15089.456;29
2024-09-16T12:17:37.667;599619622265408000;15097.13;29
2024-09-16T12:17:37.674;599619622273082496;15104.805;38
2024-09-16T12:17:37.682;599619622280756864;15112.479;34
2024-09-16T12:17:37.690;599619622288431367;15120.153;24
2024-09-16T12:17:37.697;599619622296106240;15127.828;19
2024-09-16T12:17:37.705;599619622303781120;15135.503;34
2024-09-16T12:17:37.713;599619622311456000;15143.179;36
2024-09-16T12:17:37.720;599619622319130880;15150.854;19
2024-09-16T12:17:37.728;599619622326805632;15158.528;14
2024-09-16T12:17:37.736;599619622334480512;15166.203;24
2024-09-16T12:17:37.743;599619622342155392;15173.878;14
2024-09-16T12:17:37.751;599619622349830272;15181.553;7
2024-09-16T12:17:37.759;599619622357505152;15189.228;14
2024-09-16T12:17:37.766;599619622365180032;15196.902;19
2024-09-16T12:17:37.774;599619622372854784;15204.577;14
2024-09-16T12:17:37.782;599619622380529664;15212.252;9
2024-09-16T12:17:37.789;599619622388204544;15219.927;9
2024-09-16T12:17:37.797;599619622395879424;15227.602;-2
2024-09-16T12:17:37.805;599619622403554304;15235.276;0
2024-09-16T12:17:37.812;599619622411229184;15242.952;53
2024-09-16T12:17:37.820;599619622418903936;15250.627;97
2024-09-16T12:17:37.828;599619622426578816;15258.302;75
2024-09-16T12:17:37.835;599619622434253696;15265.977;41
2024-09-16T12:17:37.843;599619622441928576;15273.651;29
2024-09-16T12:17:37.851;599619622449603456;15281.326;19
2024-09-16T12:17:37.859;599619622457278336;15289.001;9
2024-09-16T12:17:37.866;599619622464953088;15296.676;9
2024-09-16T12:17:37.874;599619622472627968;15304.35;7
2024-09-16T12:17:37.882;599619622480302848;15312.025;-4
2024-09-16T12:17:37.889;599619622487977728;15319.699;-4
2024-09-16T12:17:37.897;599619622495652608;15327.375;0
2024-09-16T12:17:37.905;599619622503327488;15335.049;-4
2024-09-16T12:17:37.912;599619622511002240;15342.724;-24
2024-09-16T12:17:37.920;599619622518677120;15350.399;-41
2024-09-16T12:17:37.928;599619622526352000;15358.074;48
2024-09-16T12:17:37.935;599619622534026880;15365.749;479
2024-09-16T12:17:37.943;599619622541701760;15373.424;1153
2024-09-16T12:17:37.951;599619622549376640;15381.099;1236
2024-09-16T12:17:37.958;599619622557051392;15388.773;389
2024-09-16T12:17:37.966;599619622564726272;15396.448;-206
2024-09-16T12:17:37.974;599619622572401152;15404.123;-14
2024-09-16T12:17:37.981;599619622580076032;15411.798;31
2024-09-16T12:17:37.989;599619622587750912;15419.473;-177
2024-09-16T12:17:37.997;599619622595425792;15427.147;-124
2024-09-16T12:17:38.004;599619622603100544;15434.822;-38
2024-09-16T12:17:38.012;599619622610775424;15442.497;-99
2024-09-16T12:17:38.020;599619622618450304;15450.173;-90
2024-09-16T12:17:38.027;599619622626125184;15457.848;-38
2024-09-16T12:17:38.035;599619622633800064;15465.522;-43
2024-09-16T12:17:38.043;599619622641474944;15473.197;-46
2024-09-16T12:17:38.050;599619622649149696;15480.872;-24
2024-09-16T12:17:38.058;599619622656824576;15488.547;-24
2024-09-16T12:17:38.066;599619622664499456;15496.222;-19
2024-09-16T12:17:38.073;599619622672174336;15503.896;12
2024-09-16T12:17:38.081;599619622679849216;15511.571;21
2024-09-16T12:17:38.089;599619622687524096;15519.246;14
2024-09-16T12:17:38.096;599619622695198848;15526.921;34
2024-09-16T12:17:38.104;599619622702873728;15534.596;51
2024-09-16T12:17:38.112;599619622710548608;15542.2705;51
2024-09-16T12:17:38.119;599619622718223488;15549.946;85
2024-09-16T12:17:38.127;599619622725898368;15557.621;131
2024-09-16T12:17:38.135;599619622733573248;15565.296;133
2024-09-16T12:17:38.142;599619622741248000;15572.971;141
2024-09-16T12:17:38.150;599619622748922880;15580.6455;163
2024-09-16T12:17:38.158;599619622756597760;15588.32;175
2024-09-16T12:17:38.165;599619622764272640;15595.995;177
2024-09-16T12:17:38.173;599619622771947520;15603.67;170
2024-09-16T12:17:38.181;599619622779622400;15611.345;160
2024-09-16T12:17:38.189;599619622787297152;15619.02;158
2024-09-16T12:17:38.196;599619622794972032;15626.694;141
2024-09-16T12:17:38.204;599619622802646912;15634.369;128
2024-09-16T12:17:38.212;599619622810321792;15642.044;121
2024-09-16T12:17:38.219;599619622817996672;15649.72;75
2024-09-16T12:17:38.227;599619622825671552;15657.395;12
2024-09-16T12:17:38.235;599619622833346304;15665.068;-14
2024-09-16T12:17:38.242;599619622841021184;15672.744;-4
2024-09-16T12:17:38.250;599619622848696070;15680.419;-7
2024-09-16T12:17:38.258;599619622856370560;15688.093;-46
2024-09-16T12:17:38.265;599619622864045056;15695.768;-38
2024-09-16T12:17:38.273;599619622871719424;15703.441;9
2024-09-16T12:17:38.281;599619622879393920;15711.116;7
2024-09-16T12:17:38.288;599619622887068288;15718.79;-26
2024-09-16T12:17:38.296;599619622894742784;15726.465;-34
2024-09-16T12:17:38.304;599619622902417152;15734.139;-43
2024-09-16T12:17:38.311;599619622910091648;15741.813;-24
2024-09-16T12:17:38.319;599619622917766144;15749.488;43
2024-09-16T12:17:38.327;599619622925440512;15757.162;63
2024-09-16T12:17:38.334;599619622933115008;15764.837;21
2024-09-16T12:17:38.342;599619622940789376;15772.512;9
2024-09-16T12:17:38.350;599619622948463872;15780.187;46
2024-09-16T12:17:38.357;599619622956138240;15787.86;72
2024-09-16T12:17:38.365;599619622963812736;15795.535;58
2024-09-16T12:17:38.373;599619622971487232;15803.21;29
2024-09-16T12:17:38.380;599619622979161600;15810.884;-12
2024-09-16T12:17:38.388;599619622986836096;15818.559;-48
2024-09-16T12:17:38.396;599619622994510464;15826.232;-2
2024-09-16T12:17:38.403;599619623002184960;15833.907;111
2024-09-16T12:17:38.411;599619623009859328;15841.581;133
2024-09-16T12:17:38.419;599619623017533824;15849.256;70
2024-09-16T12:17:38.426;599619623025208320;15856.931;51
2024-09-16T12:17:38.434;599619623032882688;15864.6045;68
2024-09-16T12:17:38.442;599619623040557184;15872.279;55
2024-09-16T12:17:38.449;599619623048231552;15879.953;46
2024-09-16T12:17:38.457;599619623055906048;15887.628;48
2024-09-16T12:17:38.465;599619623063580416;15895.302;51
2024-09-16T12:17:38.472;599619623071254912;15902.977;75
2024-09-16T12:17:38.480;599619623078929408;15910.652;107
2024-09-16T12:17:38.488;599619623086603776;15918.326;107
2024-09-16T12:17:38.496;599619623094278272;15926.001;104
2024-09-16T12:17:38.503;599619623101952640;15933.675;97
2024-09-16T12:17:38.511;599619623109627136;15941.35;60
2024-09-16T12:17:38.519;599619623117301504;15949.023;31
2024-09-16T12:17:38.526;599619623124976000;15956.698;53
2024-09-16T12:17:38.534;599619623132650496;15964.373;82
2024-09-16T12:17:38.542;599619623140324864;15972.047;70
2024-09-16T12:17:38.549;599619623147999360;15979.722;46
2024-09-16T12:17:38.557;599619623155673728;15987.3955;53
2024-09-16T12:17:38.565;599619623163348224;15995.07;60
2024-09-16T12:17:38.572;599619623171022592;16002.744;51
2024-09-16T12:17:38.580;599619623178697088;16010.419;26
2024-09-16T12:17:38.588;599619623186371456;16018.094;43
2024-09-16T12:17:38.595;599619623194045952;16025.768;289
2024-09-16T12:17:38.603;599619623201720448;16033.442;934
2024-09-16T12:17:38.611;599619623209394816;16041.116;1464
2024-09-16T12:17:38.618;599619623217069312;16048.792;956
2024-09-16T12:17:38.626;599619623224743680;16056.466;-21
