Phone timestamp;sensor timestamp [ns];timestamp [ms];ecg [uV]
2024-09-17T06:37:17.518;599616429190976000;0.0;26
2024-09-17T06:37:17.525;599616429198668288;7.692288;195
2024-09-17T06:37:17.533;599616429206360576;15.384576;1131
2024-09-17T06:37:17.541;599616429214052864;23.076864;2791
2024-09-17T06:37:17.548;599616429221745280;30.76928;4072
2024-09-17T06:37:17.556;599616429229437568;38.461567;4790
2024-09-17T06:37:17.564;599616429237129856;46.153854;5590
2024-09-17T06:37:17.571;599616429244822144;53.846146;6342
2024-09-17T06:37:17.579;599616429252514432;61.538433;6828
2024-09-17T06:37:17.587;599616429260206720;69.23072;7255
2024-09-17T06:37:17.594;599616429267899136;76.923134;7673
2024-09-17T06:37:17.602;599616429275591424;84.615425;8038
2024-09-17T06:37:17.610;599616429283283712;92.30771;8389
2024-09-17T06:37:17.618;599616429290976000;100.0;8693
2024-09-17T06:37:17.625;599616429298668288;107.69229;8925
2024-09-17T06:37:17.633;599616429306360576;115.384575;9131
2024-09-17T06:37:17.641;599616429314052864;123.076866;9332
2024-09-17T06:37:17.648;599616429321745280;130.76929;9501
2024-09-17T06:37:17.656;599616429329437568;138.46156;9653
2024-09-17T06:37:17.664;599616429337129856;146.15385;9808
2024-09-17T06:37:17.671;599616429344822144;153.84615;9921
2024-09-17T06:37:17.679;599616429352514432;161.53844;10016
2024-09-17T06:37:17.687;599616429360206720;169.23071;10281
2024-09-17T06:37:17.694;599616429367899136;176.92314;10881
2024-09-17T06:37:17.702;599616429375591424;184.61542;11541
2024-09-17T06:37:17.710;599616429383283712;192.30771;11379
2024-09-17T06:37:17.718;599616429390976000;200.0;10349
2024-09-17T06:37:17.725;599616429398668288;207.69229;9912
2024-09-17T06:37:17.733;599616429406360576;215.38458;10380
2024-09-17T06:37:17.741;599616429414052864;223.07686;10509
2024-09-17T06:37:17.748;599616429421745280;230.76929;10277
2024-09-17T06:37:17.756;599616429429437568;238.46156;10347
2024-09-17T06:37:17.764;599616429437129856;246.15385;10455
2024-09-17T06:37:17.771;599616429444822144;253.84615;10373
2024-09-17T06:37:17.779;599616429452514432;261.53842;10337
2024-09-17T06:37:17.787;599616429460206720;269.2307;10376
2024-09-17T06:37:17.794;599616429467899136;276.92313;10368
2024-09-17T06:37:17.802;599616429475591424;284.61542;10351
2024-09-17T06:37:17.810;599616429483283712;292.3077;10344
2024-09-17T06:37:17.818;599616429490976000;300.0;10327
2024-09-17T06:37:17.825;599616429498668288;307.6923;10315
2024-09-17T06:37:17.833;599616429506360576;315.38458;10310
2024-09-17T06:37:17.841;599616429514052864;323.07687;10284
2024-09-17T06:37:17.848;599616429521745280;330.7693;10245
2024-09-17T06:37:17.856;599616429529437568;338.46158;10221
2024-09-17T06:37:17.864;599616429537129856;346.15387;10199
2024-09-17T06:37:17.871;599616429544822144;353.84613;10165
2024-09-17T06:37:17.879;599616429552514432;361.53842;10129
2024-09-17T06:37:17.887;599616429560206720;369.2307;10103
2024-09-17T06:37:17.894;599616429567899136;376.92313;10083
2024-09-17T06:37:17.902;599616429575591424;384.61542;10074
2024-09-17T06:37:17.910;599616429583283712;392.3077;10047
2024-09-17T06:37:17.918;599616429590976000;400.0;9994
2024-09-17T06:37:17.925;599616429598668288;407.6923;9945
2024-09-17T06:37:17.933;599616429606360576;415.38458;9904
2024-09-17T06:37:17.941;599616429614052864;423.07687;9841
2024-09-17T06:37:17.948;599616429621745280;430.7693;9779
2024-09-17T06:37:17.956;599616429629437568;438.46158;9728
2024-09-17T06:37:17.964;599616429637129856;446.15387;9663
2024-09-17T06:37:17.971;599616429644822144;453.84613;9583
2024-09-17T06:37:17.979;599616429652514432;461.53842;9474
2024-09-17T06:37:17.987;599616429660206720;469.2307;9353
2024-09-17T06:37:17.994;599616429667899136;476.92313;9244
2024-09-17T06:37:18.002;599616429675591424;484.61542;9138
2024-09-17T06:37:18.010;599616429683283712;492.3077;9041
2024-09-17T06:37:18.018;599616429690976000;500.0;8967
2024-09-17T06:37:18.025;599616429698668288;507.6923;8899
2024-09-17T06:37:18.033;599616429706360576;515.3846;8829
2024-09-17T06:37:18.041;599616429714052864;523.07684;8768
2024-09-17T06:37:18.048;599616429721745280;530.7693;8706
2024-09-17T06:37:18.056;599616429729437568;538.46155;8628
2024-09-17T06:37:18.064;599616429737129856;546.1539;8565
2024-09-17T06:37:18.071;599616429744822139;553.8461;8517
2024-09-17T06:37:18.079;599616429752498560;561.5226;8447
2024-09-17T06:37:18.087;599616429760174976;569.199;8382
2024-09-17T06:37:18.094;599616429767851520;576.87555;8321
2024-09-17T06:37:18.102;599616429775527936;584.55194;8258
2024-09-17T06:37:18.110;599616429783204352;592.22833;8205
2024-09-17T06:37:18.117;599616429790880896;599.9049;8145
2024-09-17T06:37:18.125;599616429798557312;607.5813;8065
2024-09-17T06:37:18.133;599616429806233728;615.25775;8000
2024-09-17T06:37:18.140;599616429813910272;622.93427;7932
2024-09-17T06:37:18.148;599616429821586688;630.6107;7847
2024-09-17T06:37:18.156;599616429829263232;638.28723;7789
2024-09-17T06:37:18.163;599616429836939648;645.9636;7739
2024-09-17T06:37:18.171;599616429844616064;653.6401;7652
2024-09-17T06:37:18.179;599616429852292608;661.3166;7565
2024-09-17T06:37:18.186;599616429859969024;668.99304;7499
2024-09-17T06:37:18.194;599616429867645440;676.66943;7429
2024-09-17T06:37:18.202;599616429875321984;684.346;7359
2024-09-17T06:37:18.210;599616429882998400;692.0224;7296
2024-09-17T06:37:18.217;599616429890674816;699.6988;7231
2024-09-17T06:37:18.225;599616429898351360;707.37537;7159
2024-09-17T06:37:18.233;599616429906027776;715.05176;7091
2024-09-17T06:37:18.240;599616429913704192;722.7282;7035
2024-09-17T06:37:18.248;599616429921380736;730.4047;6997
2024-09-17T06:37:18.256;599616429929057152;738.0812;6948
2024-09-17T06:37:18.263;599616429936733696;745.7577;6869
2024-09-17T06:37:18.271;599616429944410112;753.4341;6791
2024-09-17T06:37:18.279;599616429952086528;761.11053;6709
2024-09-17T06:37:18.286;599616429959763072;768.78705;6615
2024-09-17T06:37:18.294;599616429967439488;776.4635;6547
2024-09-17T06:37:18.302;599616429975115904;784.1399;6492
2024-09-17T06:37:18.309;599616429982792448;791.81647;6421
2024-09-17T06:37:18.317;599616429990468864;799.49286;6351
2024-09-17T06:37:18.325;599616429998145280;807.16925;6291
2024-09-17T06:37:18.332;599616430005821824;814.8458;6223
2024-09-17T06:37:18.340;599616430013498240;822.5222;6160
2024-09-17T06:37:18.348;599616430021174656;830.19867;6098
2024-09-17T06:37:18.355;599616430028851200;837.8752;6023
2024-09-17T06:37:18.363;599616430036527616;845.55164;5962
2024-09-17T06:37:18.371;599616430044204160;853.22815;6008
2024-09-17T06:37:18.378;599616430051880576;860.9046;6313
2024-09-17T06:37:18.386;599616430059556992;868.581;6910
2024-09-17T06:37:18.394;599616430067233536;876.2575;7195
2024-09-17T06:37:18.401;599616430074909952;883.93396;6366
2024-09-17T06:37:18.409;599616430082586368;891.61035;5261
2024-09-17T06:37:18.417;599616430090262912;899.2869;5254
2024-09-17T06:37:18.424;599616430097939328;906.9633;5597
2024-09-17T06:37:18.432;599616430105615744;914.6398;5368
2024-09-17T06:37:18.440;599616430113292288;922.3163;5201
2024-09-17T06:37:18.447;599616430120968704;929.9927;5305
2024-09-17T06:37:18.455;599616430128645120;937.6691;5237
2024-09-17T06:37:18.463;599616430136321664;945.34564;5109
2024-09-17T06:37:18.471;599616430143998080;953.0221;5104
2024-09-17T06:37:18.478;599616430151674496;960.6985;5087
2024-09-17T06:37:18.486;599616430159351040;968.37506;5010
2024-09-17T06:37:18.494;599616430167027456;976.05145;4947
2024-09-17T06:37:18.501;599616430174704000;983.728;4911
2024-09-17T06:37:18.509;599616430182380416;991.4044;4872
2024-09-17T06:37:18.517;599616430190056832;999.0808;4836
2024-09-17T06:37:18.524;599616430197733376;1006.7574;4795
2024-09-17T06:37:18.532;599616430205409792;1014.4338;4737
2024-09-17T06:37:18.540;599616430213086208;1022.1102;4696
2024-09-17T06:37:18.547;599616430220762752;1029.7867;4664
2024-09-17T06:37:18.555;599616430228439168;1037.4631;4628
2024-09-17T06:37:18.563;599616430236115584;1045.1395;4585
2024-09-17T06:37:18.570;599616430243792128;1052.8162;4543
2024-09-17T06:37:18.578;599616430251468544;1060.4926;4522
2024-09-17T06:37:18.586;599616430259144960;1068.169;4512
2024-09-17T06:37:18.593;599616430266821504;1075.8455;4485
2024-09-17T06:37:18.601;599616430274497920;1083.522;4447
2024-09-17T06:37:18.609;599616430282174464;1091.1985;4411
2024-09-17T06:37:18.616;599616430289850880;1098.8749;4372
2024-09-17T06:37:18.624;599616430297527296;1106.5513;4333
2024-09-17T06:37:18.632;599616430305203828;1114.2278;4297
2024-09-17T06:37:18.639;599616430312880000;1121.904;4249
2024-09-17T06:37:18.647;599616430320556160;1129.5802;4186
2024-09-17T06:37:18.655;599616430328232192;1137.2562;4118
2024-09-17T06:37:18.662;599616430335908352;1144.9324;4038
2024-09-17T06:37:18.670;599616430343584512;1152.6085;3946
2024-09-17T06:37:18.678;599616430351260544;1160.2845;3859
2024-09-17T06:37:18.685;599616430358936704;1167.9607;3785
2024-09-17T06:37:18.693;599616430366612736;1175.6367;3712
2024-09-17T06:37:18.701;599616430374288896;1183.3129;3647
2024-09-17T06:37:18.708;599616430381965056;1190.989;3589
2024-09-17T06:37:18.716;599616430389641088;1198.665;3538
2024-09-17T06:37:18.724;599616430397317248;1206.3413;3507
2024-09-17T06:37:18.732;599616430404993408;1214.0175;3478
2024-09-17T06:37:18.739;599616430412669440;1221.6935;3434
2024-09-17T06:37:18.747;599616430420345600;1229.3696;3398
2024-09-17T06:37:18.755;599616430428021760;1237.0458;3371
2024-09-17T06:37:18.762;599616430435697792;1244.7218;3333
2024-09-17T06:37:18.770;599616430443373952;1252.398;3296
2024-09-17T06:37:18.778;599616430451049984;1260.074;3272
2024-09-17T06:37:18.785;599616430458726144;1267.7501;3253
2024-09-17T06:37:18.793;599616430466402304;1275.4263;3219
2024-09-17T06:37:18.801;599616430474078336;1283.1023;3171
2024-09-17T06:37:18.808;599616430481754496;1290.7784;3132
2024-09-17T06:37:18.816;599616430489430656;1298.4547;3117
2024-09-17T06:37:18.824;599616430497106688;1306.1307;3098
2024-09-17T06:37:18.831;599616430504782848;1313.8069;3057
2024-09-17T06:37:18.839;599616430512458880;1321.4829;3018
2024-09-17T06:37:18.847;599616430520135040;1329.159;2987
2024-09-17T06:37:18.854;599616430527811200;1336.8352;2958
2024-09-17T06:37:18.862;599616430535487232;1344.5112;2934
2024-09-17T06:37:18.870;599616430543163392;1352.1874;2900
2024-09-17T06:37:18.877;599616430550839552;1359.8635;2856
2024-09-17T06:37:18.885;599616430558515584;1367.5396;2823
2024-09-17T06:37:18.893;599616430566191744;1375.2157;2791
2024-09-17T06:37:18.900;599616430573867904;1382.8918;2769
2024-09-17T06:37:18.908;599616430581543936;1390.568;2750
2024-09-17T06:37:18.916;599616430589220096;1398.2441;2709
2024-09-17T06:37:18.923;599616430596896128;1405.9202;2670
2024-09-17T06:37:18.931;599616430604572288;1413.5963;2653
2024-09-17T06:37:18.939;599616430612248448;1421.2725;2646
2024-09-17T06:37:18.946;599616430619924480;1428.9485;2665
2024-09-17T06:37:18.954;599616430627600640;1436.6246;2670
2024-09-17T06:37:18.962;599616430635276800;1444.3008;2607
2024-09-17T06:37:18.969;599616430642952832;1451.9768;2540
2024-09-17T06:37:18.977;599616430650628992;1459.653;2504
2024-09-17T06:37:18.985;599616430658305152;1467.3291;2470
2024-09-17T06:37:18.993;599616430665981184;1475.0051;2436
2024-09-17T06:37:19.000;599616430673657344;1482.6814;2404
2024-09-17T06:37:19.008;599616430681333376;1490.3574;2373
2024-09-17T06:37:19.016;599616430689009536;1498.0336;2342
2024-09-17T06:37:19.023;599616430696685696;1505.7097;2332
2024-09-17T06:37:19.031;599616430704361728;1513.3857;2317
2024-09-17T06:37:19.039;599616430712037888;1521.0619;2293
2024-09-17T06:37:19.046;599616430719714048;1528.738;2279
2024-09-17T06:37:19.054;599616430727390080;1536.4141;2255
2024-09-17T06:37:19.062;599616430735066240;1544.0902;2216
2024-09-17T06:37:19.069;599616430742742272;1551.7662;2267
2024-09-17T06:37:19.077;599616430750418432;1559.4424;2581
2024-09-17T06:37:19.085;599616430758094592;1567.1187;3180
2024-09-17T06:37:19.092;599616430765770624;1574.7947;3482
2024-09-17T06:37:19.100;599616430773446784;1582.4708;2772
2024-09-17T06:37:19.108;599616430781122944;1590.147;1815
2024-09-17T06:37:19.115;599616430788798976;1597.823;1829
2024-09-17T06:37:19.123;599616430796475136;1605.4991;2126
2024-09-17T06:37:19.131;599616430804151296;1613.1753;1938
2024-09-17T06:37:19.138;599616430811827328;1620.8513;1853
2024-09-17T06:37:19.146;599616430819503488;1628.5275;1981
2024-09-17T06:37:19.154;599616430827179520;1636.2035;1936
2024-09-17T06:37:19.161;599616430834855680;1643.8796;1853
2024-09-17T06:37:19.169;599616430842531840;1651.5558;1885
2024-09-17T06:37:19.177;599616430850207872;1659.2318;1892
2024-09-17T06:37:19.184;599616430857884032;1666.9081;1853
2024-09-17T06:37:19.192;599616430865560085;1674.5841;1841
2024-09-17T06:37:19.200;599616430873236608;1682.2606;1839
2024-09-17T06:37:19.207;599616430880913152;1689.9371;1822
2024-09-17T06:37:19.215;599616430888589696;1697.6136;1812
2024-09-17T06:37:19.223;599616430896266240;1705.2903;1810
2024-09-17T06:37:19.230;599616430903942784;1712.9668;1812
2024-09-17T06:37:19.238;599616430911619200;1720.6432;1805
2024-09-17T06:37:19.246;599616430919295744;1728.3197;1781
2024-09-17T06:37:19.253;599616430926972288;1735.9963;1771
2024-09-17T06:37:19.261;599616430934648832;1743.6729;1778
2024-09-17T06:37:19.269;599616430942325376;1751.3494;1778
2024-09-17T06:37:19.277;599616430950001920;1759.0259;1774
2024-09-17T06:37:19.284;599616430957678464;1766.7025;1776
2024-09-17T06:37:19.292;599616430965355008;1774.379;1781
2024-09-17T06:37:19.300;599616430973031552;1782.0555;1778
2024-09-17T06:37:19.307;599616430980708096;1789.732;1778
2024-09-17T06:37:19.315;599616430988384512;1797.4086;1781
2024-09-17T06:37:19.323;599616430996061056;1805.0851;1769
2024-09-17T06:37:19.330;599616431003737600;1812.7616;1749
2024-09-17T06:37:19.338;599616431011414144;1820.4381;1720
2024-09-17T06:37:19.346;599616431019090688;1828.1147;1699
2024-09-17T06:37:19.353;599616431026767232;1835.7913;1682
2024-09-17T06:37:19.361;599616431034443776;1843.4678;1626
2024-09-17T06:37:19.369;599616431042120320;1851.1443;1554
2024-09-17T06:37:19.376;599616431049796864;1858.8209;1513
2024-09-17T06:37:19.384;599616431057473408;1866.4974;1464
2024-09-17T06:37:19.392;599616431065149824;1874.1738;1397
2024-09-17T06:37:19.399;599616431072826368;1881.8503;1353
2024-09-17T06:37:19.407;599616431080502912;1889.5269;1322
2024-09-17T06:37:19.415;599616431088179456;1897.2035;1300
2024-09-17T06:37:19.422;599616431095856000;1904.88;1312
2024-09-17T06:37:19.430;599616431103532544;1912.5565;1310
2024-09-17T06:37:19.438;599616431111209088;1920.233;1276
2024-09-17T06:37:19.445;599616431118885632;1927.9097;1256
2024-09-17T06:37:19.453;599616431126562176;1935.5862;1261
2024-09-17T06:37:19.461;599616431134238720;1943.2627;1247
2024-09-17T06:37:19.468;599616431141915136;1950.9391;1218
2024-09-17T06:37:19.476;599616431149591680;1958.6157;1196
2024-09-17T06:37:19.484;599616431157268224;1966.2922;1196
2024-09-17T06:37:19.491;599616431164944768;1973.9688;1206
2024-09-17T06:37:19.499;599616431172621312;1981.6453;1177
2024-09-17T06:37:19.507;599616431180297856;1989.3219;1128
2024-09-17T06:37:19.514;599616431187974400;1996.9984;1121
2024-09-17T06:37:19.522;599616431195650944;2004.6749;1119
2024-09-17T06:37:19.530;599616431203327488;2012.3514;1087
2024-09-17T06:37:19.538;599616431211004032;2020.0281;1065
2024-09-17T06:37:19.545;599616431218680448;2027.7045;1058
2024-09-17T06:37:19.553;599616431226356992;2035.381;1046
2024-09-17T06:37:19.561;599616431234033536;2043.0575;1034
2024-09-17T06:37:19.568;599616431241710080;2050.7341;1027
2024-09-17T06:37:19.576;599616431249386624;2058.4106;1017
2024-09-17T06:37:19.584;599616431257063168;2066.0872;1005
2024-09-17T06:37:19.591;599616431264739712;2073.7637;1000
2024-09-17T06:37:19.599;599616431272416256;2081.4402;1017
2024-09-17T06:37:19.607;599616431280092800;2089.1167;1039
2024-09-17T06:37:19.614;599616431287769344;2096.7935;1024
2024-09-17T06:37:19.622;599616431295445760;2104.4697;983
2024-09-17T06:37:19.630;599616431303122304;2112.1462;969
2024-09-17T06:37:19.637;599616431310798848;2119.8228;986
2024-09-17T06:37:19.645;599616431318475392;2127.4995;1003
2024-09-17T06:37:19.653;599616431326151936;2135.176;1012
2024-09-17T06:37:19.660;599616431333828480;2142.8525;1007
2024-09-17T06:37:19.668;599616431341505024;2150.529;998
2024-09-17T06:37:19.676;599616431349181568;2158.2053;998
2024-09-17T06:37:19.683;599616431356858112;2165.882;1000
2024-09-17T06:37:19.691;599616431364534656;2173.5588;1015
2024-09-17T06:37:19.699;599616431372211072;2181.235;1056
2024-09-17T06:37:19.706;599616431379887616;2188.9116;1056
2024-09-17T06:37:19.714;599616431387564160;2196.5881;1007
2024-09-17T06:37:19.722;599616431395240704;2204.2646;1005
2024-09-17T06:37:19.729;599616431402917248;2211.9414;1012
2024-09-17T06:37:19.737;599616431410593792;2219.6177;971
2024-09-17T06:37:19.745;599616431418270336;2227.2942;932
2024-09-17T06:37:19.752;599616431425946860;2234.971;913
2024-09-17T06:37:19.760;599616431433623040;2242.647;903
2024-09-17T06:37:19.768;599616431441299200;2250.3232;913
2024-09-17T06:37:19.775;599616431448975232;2257.9993;945
2024-09-17T06:37:19.783;599616431456651392;2265.6753;981
2024-09-17T06:37:19.791;599616431464327552;2273.3516;969
2024-09-17T06:37:19.799;599616431472003584;2281.0276;911
2024-09-17T06:37:19.806;599616431479679744;2288.7039;879
2024-09-17T06:37:19.814;599616431487355776;2296.38;928
2024-09-17T06:37:19.822;599616431495031936;2304.056;1196
2024-09-17T06:37:19.829;599616431502708096;2311.7322;1786
2024-09-17T06:37:19.837;599616431510384128;2319.4082;2206
2024-09-17T06:37:19.845;599616431518060288;2327.0842;1653
2024-09-17T06:37:19.852;599616431525736448;2334.7605;652
2024-09-17T06:37:19.860;599616431533412480;2342.4363;543
2024-09-17T06:37:19.868;599616431541088640;2350.1128;901
2024-09-17T06:37:19.875;599616431548764800;2357.7886;766
2024-09-17T06:37:19.883;599616431556440832;2365.4648;635
2024-09-17T06:37:19.891;599616431564116992;2373.141;800
2024-09-17T06:37:19.898;599616431571793024;2380.817;797
2024-09-17T06:37:19.906;599616431579469184;2388.4934;705
2024-09-17T06:37:19.914;599616431587145344;2396.1692;758
2024-09-17T06:37:19.921;599616431594821376;2403.8455;800
2024-09-17T06:37:19.929;599616431602497536;2411.5215;785
2024-09-17T06:37:19.937;599616431610173696;2419.1978;780
2024-09-17T06:37:19.944;599616431617849728;2426.8738;763
2024-09-17T06:37:19.952;599616431625525888;2434.5498;778
2024-09-17T06:37:19.960;599616431633201920;2442.2258;877
2024-09-17T06:37:19.967;599616431640878080;2449.902;916
2024-09-17T06:37:19.975;599616431648554240;2457.5781;853
2024-09-17T06:37:19.983;599616431656230272;2465.2544;843
2024-09-17T06:37:19.990;599616431663906432;2472.9304;879
2024-09-17T06:37:19.998;599616431671582592;2480.6067;865
2024-09-17T06:37:20.006;599616431679258624;2488.2827;848
2024-09-17T06:37:20.013;599616431686934784;2495.9587;877
2024-09-17T06:37:20.021;599616431694610944;2503.635;906
2024-09-17T06:37:20.029;599616431702286976;2511.3108;913
2024-09-17T06:37:20.036;599616431709963136;2518.9873;913
2024-09-17T06:37:20.044;599616431717639168;2526.663;920
2024-09-17T06:37:20.052;599616431725315328;2534.3394;923
2024-09-17T06:37:20.060;599616431732991488;2542.0154;911
2024-09-17T06:37:20.067;599616431740667520;2549.6914;913
2024-09-17T06:37:20.075;599616431748343680;2557.368;930
2024-09-17T06:37:20.083;599616431756019840;2565.0437;913
2024-09-17T06:37:20.090;599616431763695872;2572.72;874
2024-09-17T06:37:20.098;599616431771372032;2580.396;845
2024-09-17T06:37:20.106;599616431779048192;2588.0723;809
2024-09-17T06:37:20.113;599616431786724224;2595.7483;758
2024-09-17T06:37:20.121;599616431794400384;2603.4243;710
2024-09-17T06:37:20.129;599616431802076416;2611.1003;662
2024-09-17T06:37:20.136;599616431809752576;2618.7766;616
2024-09-17T06:37:20.144;599616431817428736;2626.4526;582
2024-09-17T06:37:20.152;599616431825104768;2634.129;555
2024-09-17T06:37:20.159;599616431832780928;2641.8047;526
2024-09-17T06:37:20.167;599616431840457088;2649.4812;500
2024-09-17T06:37:20.175;599616431848133120;2657.1572;507
2024-09-17T06:37:20.182;599616431855809280;2664.8333;543
2024-09-17T06:37:20.190;599616431863485312;2672.5095;553
2024-09-17T06:37:20.198;599616431871161472;2680.1853;522
2024-09-17T06:37:20.205;599616431878837632;2687.8618;502
2024-09-17T06:37:20.213;599616431886513664;2695.5376;514
2024-09-17T06:37:20.221;599616431894189824;2703.2139;531
2024-09-17T06:37:20.228;599616431901865984;2710.89;507
2024-09-17T06:37:20.236;599616431909542016;2718.566;490
2024-09-17T06:37:20.244;599616431917218176;2726.2422;543
2024-09-17T06:37:20.251;599616431924894336;2733.9182;580
2024-09-17T06:37:20.259;599616431932570368;2741.5945;546
2024-09-17T06:37:20.267;599616431940246528;2749.2705;519
2024-09-17T06:37:20.274;599616431947922560;2756.9465;514
2024-09-17T06:37:20.282;599616431955598720;2764.6228;497
2024-09-17T06:37:20.290;599616431963274880;2772.2988;495
2024-09-17T06:37:20.297;599616431970950912;2779.9749;534
2024-09-17T06:37:20.305;599616431978627072;2787.6511;536
2024-09-17T06:37:20.313;599616431986303117;2795.3271;488
2024-09-17T06:37:20.321;599616431993979264;2803.0034;483
2024-09-17T06:37:20.328;599616432001655424;2810.6792;507
2024-09-17T06:37:20.336;599616432009331456;2818.3555;485
2024-09-17T06:37:20.344;599616432017007616;2826.0315;473
2024-09-17T06:37:20.351;599616432024683776;2833.7078;514
2024-09-17T06:37:20.359;599616432032359808;2841.384;517
2024-09-17T06:37:20.367;599616432040035968;2849.0598;476
2024-09-17T06:37:20.374;599616432047712000;2856.736;471
2024-09-17T06:37:20.382;599616432055388160;2864.412;473
2024-09-17T06:37:20.390;599616432063064320;2872.0884;459
2024-09-17T06:37:20.397;599616432070740352;2879.7644;468
2024-09-17T06:37:20.405;599616432078416512;2887.4404;488
2024-09-17T06:37:20.413;599616432086092672;2895.1167;449
2024-09-17T06:37:20.420;599616432093768704;2902.7927;410
2024-09-17T06:37:20.428;599616432101444864;2910.4688;476
2024-09-17T06:37:20.436;599616432109121024;2918.145;551
2024-09-17T06:37:20.443;599616432116797056;2925.821;531
2024-09-17T06:37:20.451;599616432124473216;2933.4973;514
2024-09-17T06:37:20.459;599616432132149248;2941.1733;522
2024-09-17T06:37:20.466;599616432139825408;2948.8494;485
2024-09-17T06:37:20.474;599616432147501568;2956.5256;422
2024-09-17T06:37:20.482;599616432155177600;2964.2014;384
2024-09-17T06:37:20.489;599616432162853760;2971.878;401
2024-09-17T06:37:20.497;599616432170529920;2979.5537;459
2024-09-17T06:37:20.505;599616432178205952;2987.23;461
2024-09-17T06:37:20.512;599616432185882112;2994.906;408
2024-09-17T06:37:20.520;599616432193558144;3002.582;391
2024-09-17T06:37:20.528;599616432201234304;3010.2585;391
2024-09-17T06:37:20.535;599616432208910464;3017.9343;367
2024-09-17T06:37:20.543;599616432216586496;3025.6106;357
2024-09-17T06:37:20.551;599616432224262656;3033.2866;389
2024-09-17T06:37:20.558;599616432231938816;3040.963;408
2024-09-17T06:37:20.566;599616432239614848;3048.639;418
2024-09-17T06:37:20.574;599616432247291008;3056.315;599
2024-09-17T06:37:20.581;599616432254967168;3063.9912;1152
2024-09-17T06:37:20.589;599616432262643200;3071.6672;1805
2024-09-17T06:37:20.597;599616432270319360;3079.3433;1561
2024-09-17T06:37:20.605;599616432277995392;3087.0195;367
2024-09-17T06:37:20.612;599616432285671552;3094.6953;-125
2024-09-17T06:37:20.620;599616432293347712;3102.3718;360
2024-09-17T06:37:20.628;599616432301023744;3110.0479;435
2024-09-17T06:37:20.635;599616432308699904;3117.7239;161
2024-09-17T06:37:20.643;599616432316376064;3125.4001;251
2024-09-17T06:37:20.651;599616432324052096;3133.076;357
2024-09-17T06:37:20.658;599616432331728256;3140.7524;273
2024-09-17T06:37:20.666;599616432339404416;3148.4282;273
2024-09-17T06:37:20.674;599616432347080448;3156.1045;323
2024-09-17T06:37:20.681;599616432354756608;3163.7805;309
2024-09-17T06:37:20.689;599616432362432640;3171.4565;302
2024-09-17T06:37:20.697;599616432370108800;3179.1328;326
2024-09-17T06:37:20.704;599616432377784960;3186.8088;335
2024-09-17T06:37:20.712;599616432385460992;3194.485;331
2024-09-17T06:37:20.720;599616432393137152;3202.1611;321
2024-09-17T06:37:20.727;599616432400813312;3209.8374;321
2024-09-17T06:37:20.735;599616432408489344;3217.5134;386
2024-09-17T06:37:20.743;599616432416165504;3225.1895;442
2024-09-17T06:37:20.750;599616432423841536;3232.8655;401
2024-09-17T06:37:20.758;599616432431517696;3240.5417;381
2024-09-17T06:37:20.766;599616432439193856;3248.2178;432
2024-09-17T06:37:20.773;599616432446869888;3255.894;451
2024-09-17T06:37:20.781;599616432454546048;3263.5698;451
2024-09-17T06:37:20.789;599616432462222208;3271.2463;473
2024-09-17T06:37:20.796;599616432469898240;3278.922;490
2024-09-17T06:37:20.804;599616432477574400;3286.5984;502
2024-09-17T06:37:20.812;599616432485250560;3294.2747;509
2024-09-17T06:37:20.819;599616432492926592;3301.9504;493
2024-09-17T06:37:20.827;599616432500602752;3309.627;483
2024-09-17T06:37:20.835;599616432508278784;3317.3027;514
2024-09-17T06:37:20.842;599616432515954944;3324.979;512
2024-09-17T06:37:20.850;599616432523631104;3332.655;459
2024-09-17T06:37:20.858;599616432531307136;3340.331;430
2024-09-17T06:37:20.866;599616432538983296;3348.0073;396
2024-09-17T06:37:20.873;599616432546659374;3355.6833;321
2024-09-17T06:37:20.881;599616432554335872;3363.3599;251
2024-09-17T06:37:20.889;599616432562012416;3371.0364;186
2024-09-17T06:37:20.896;599616432569688960;3378.7131;130
2024-09-17T06:37:20.904;599616432577365504;3386.3894;137
2024-09-17T06:37:20.912;599616432585042048;3394.066;145
2024-09-17T06:37:20.919;599616432592718464;3401.7424;91
2024-09-17T06:37:20.927;599616432600395008;3409.419;84
2024-09-17T06:37:20.935;599616432608071552;3417.0957;111
2024-09-17T06:37:20.942;599616432615748096;3424.7722;82
2024-09-17T06:37:20.950;599616432623424640;3432.4485;77
2024-09-17T06:37:20.958;599616432631101184;3440.1252;99
2024-09-17T06:37:20.965;599616432638777728;3447.8018;82
2024-09-17T06:37:20.973;599616432646454272;3455.4783;79
2024-09-17T06:37:20.981;599616432654130816;3463.1548;96
2024-09-17T06:37:20.988;599616432661807360;3470.8313;87
2024-09-17T06:37:20.996;599616432669483776;3478.5078;65
2024-09-17T06:37:21.004;599616432677160320;3486.1843;58
2024-09-17T06:37:21.011;599616432684836864;3493.8608;62
2024-09-17T06:37:21.019;599616432692513408;3501.5374;48
2024-09-17T06:37:21.027;599616432700189952;3509.2139;38
2024-09-17T06:37:21.034;599616432707866496;3516.8906;60
2024-09-17T06:37:21.042;599616432715543040;3524.5671;53
2024-09-17T06:37:21.050;599616432723219584;3532.2434;19
2024-09-17T06:37:21.057;599616432730896128;3539.9202;14
2024-09-17T06:37:21.065;599616432738572672;3547.5967;4
2024-09-17T06:37:21.073;599616432746249088;3555.2732;-9
2024-09-17T06:37:21.080;599616432753925632;3562.9497;-12
2024-09-17T06:37:21.088;599616432761602176;3570.626;-4
2024-09-17T06:37:21.096;599616432769278720;3578.3027;4
2024-09-17T06:37:21.103;599616432776955264;3585.9795;-9
2024-09-17T06:37:21.111;599616432784631808;3593.6558;-21
2024-09-17T06:37:21.119;599616432792308352;3601.3323;-21
2024-09-17T06:37:21.127;599616432799984896;3609.0088;-29
2024-09-17T06:37:21.134;599616432807661440;3616.6855;-31
2024-09-17T06:37:21.142;599616432815337984;3624.362;-24
2024-09-17T06:37:21.150;599616432823014400;3632.0383;-29
2024-09-17T06:37:21.157;599616432830690944;3639.7148;-33
2024-09-17T06:37:21.165;599616432838367488;3647.3916;-29
2024-09-17T06:37:21.173;599616432846044032;3655.068;-4
2024-09-17T06:37:21.180;599616432853720576;3662.7446;24
2024-09-17T06:37:21.188;599616432861397120;3670.421;36
2024-09-17T06:37:21.196;599616432869073664;3678.0977;26
2024-09-17T06:37:21.203;599616432876750208;3685.7744;9
2024-09-17T06:37:21.211;599616432884426752;3693.4507;-9
2024-09-17T06:37:21.219;599616432892103296;3701.1272;-19
2024-09-17T06:37:21.226;599616432899779712;3708.8035;-21
2024-09-17T06:37:21.234;599616432907456256;3716.4802;-33
2024-09-17T06:37:21.242;599616432915132800;3724.157;-45
2024-09-17T06:37:21.249;599616432922809344;3731.8333;-41
2024-09-17T06:37:21.257;599616432930485888;3739.5098;-29
2024-09-17T06:37:21.265;599616432938162432;3747.1865;-19
2024-09-17T06:37:21.272;599616432945838976;3754.863;-16
2024-09-17T06:37:21.280;599616432953515520;3762.5396;-9
2024-09-17T06:37:21.288;599616432961192064;3770.2158;-9
2024-09-17T06:37:21.295;599616432968868608;3777.8926;-26
2024-09-17T06:37:21.303;599616432976545024;3785.569;21
2024-09-17T06:37:21.311;599616432984221568;3793.2456;352
2024-09-17T06:37:21.318;599616432991898112;3800.922;1097
2024-09-17T06:37:21.326;599616432999574656;3808.5986;1662
2024-09-17T06:37:21.334;599616433007251200;3816.2751;1003
2024-09-17T06:37:21.341;599616433014927744;3823.952;-294
2024-09-17T06:37:21.349;599616433022604288;3831.6282;-468
2024-09-17T06:37:21.357;599616433030280832;3839.3047;62
2024-09-17T06:37:21.364;599616433037957376;3846.9814;-26
2024-09-17T06:37:21.372;599616433045633920;3854.658;-241
2024-09-17T06:37:21.380;599616433053310336;3862.3345;-96
2024-09-17T06:37:21.388;599616433060986880;3870.011;-62
2024-09-17T06:37:21.395;599616433068663424;3877.6873;-147
2024-09-17T06:37:21.403;599616433076339968;3885.364;-137
2024-09-17T06:37:21.411;599616433084016512;3893.0405;-116
2024-09-17T06:37:21.418;599616433091693056;3900.717;-111
2024-09-17T06:37:21.426;599616433099369600;3908.3936;-89
2024-09-17T06:37:21.434;599616433107046149;3916.07;-99
2024-09-17T06:37:21.441;599616433114722432;3923.7463;-128
2024-09-17T06:37:21.449;599616433122398720;3931.4226;-128
2024-09-17T06:37:21.457;599616433130074880;3939.0989;-118
2024-09-17T06:37:21.464;599616433137751168;3946.7751;-120
2024-09-17T06:37:21.472;599616433145427456;3954.4514;-123
2024-09-17T06:37:21.480;599616433153103744;3962.128;-118
2024-09-17T06:37:21.487;599616433160779904;3969.8037;-118
2024-09-17T06:37:21.495;599616433168456192;3977.4802;-113
2024-09-17T06:37:21.503;599616433176132480;3985.1565;-99
2024-09-17T06:37:21.510;599616433183808768;3992.8328;-91
2024-09-17T06:37:21.518;599616433191484928;4000.509;-96
2024-09-17T06:37:21.526;599616433199161216;4008.1853;-96
2024-09-17T06:37:21.533;599616433206837504;4015.8616;-94
2024-09-17T06:37:21.541;599616433214513664;4023.5376;-77
2024-09-17T06:37:21.549;599616433222189952;4031.214;-55
2024-09-17T06:37:21.556;599616433229866240;4038.8901;-62
2024-09-17T06:37:21.564;599616433237542528;4046.5664;-84
2024-09-17T06:37:21.572;599616433245218688;4054.243;-72
2024-09-17T06:37:21.579;599616433252894976;4061.919;-62
2024-09-17T06:37:21.587;599616433260571264;4069.5952;-111
2024-09-17T06:37:21.595;599616433268247424;4077.2715;-193
2024-09-17T06:37:21.602;599616433275923712;4084.9478;-270
2024-09-17T06:37:21.610;599616433283600000;4092.6238;-328
2024-09-17T06:37:21.618;599616433291276288;4100.3003;-381
2024-09-17T06:37:21.625;599616433298952448;4107.9766;-449
2024-09-17T06:37:21.633;599616433306628736;4115.653;-522
2024-09-17T06:37:21.641;599616433314305024;4123.329;-570
2024-09-17T06:37:21.649;599616433321981312;4131.0054;-594
2024-09-17T06:37:21.656;599616433329657472;4138.681;-621
2024-09-17T06:37:21.664;599616433337333760;4146.358;-623
2024-09-17T06:37:21.672;599616433345010048;4154.034;-616
2024-09-17T06:37:21.679;599616433352686208;4161.71;-635
2024-09-17T06:37:21.687;599616433360362496;4169.3867;-650
2024-09-17T06:37:21.695;599616433368038784;4177.063;-645
2024-09-17T06:37:21.702;599616433375715072;4184.7393;-645
2024-09-17T06:37:21.710;599616433383391232;4192.415;-633
2024-09-17T06:37:21.718;599616433391067520;4200.092;-604
2024-09-17T06:37:21.725;599616433398743808;4207.7676;-601
2024-09-17T06:37:21.733;599616433406419968;4215.444;-601
2024-09-17T06:37:21.741;599616433414096256;4223.1206;-558
2024-09-17T06:37:21.748;599616433421772544;4230.7964;-536
2024-09-17T06:37:21.756;599616433429448832;4238.4727;-563
2024-09-17T06:37:21.764;599616433437124992;4246.149;-555
2024-09-17T06:37:21.771;599616433444801280;4253.825;-514
2024-09-17T06:37:21.779;599616433452477568;4261.5015;-488
2024-09-17T06:37:21.787;599616433460153856;4269.1777;-480
2024-09-17T06:37:21.794;599616433467830016;4276.854;-464
2024-09-17T06:37:21.802;599616433475506304;4284.5303;-435
2024-09-17T06:37:21.810;599616433483182592;4292.2065;-415
2024-09-17T06:37:21.817;599616433490858752;4299.8823;-403
2024-09-17T06:37:21.825;599616433498535040;4307.559;-369
2024-09-17T06:37:21.833;599616433506211328;4315.2354;-335
2024-09-17T06:37:21.840;599616433513887616;4322.9116;-328
2024-09-17T06:37:21.848;599616433521563776;4330.588;-304
2024-09-17T06:37:21.856;599616433529240064;4338.264;-275
2024-09-17T06:37:21.863;599616433536916352;4345.9404;-275
2024-09-17T06:37:21.871;599616433544592512;4353.616;-280
2024-09-17T06:37:21.879;599616433552268800;4361.293;-256
2024-09-17T06:37:21.886;599616433559945088;4368.969;-205
2024-09-17T06:37:21.894;599616433567621376;4376.6455;-152
2024-09-17T06:37:21.902;599616433575297536;4384.322;-128
2024-09-17T06:37:21.909;599616433582973824;4391.998;-123
2024-09-17T06:37:21.917;599616433590650112;4399.6743;-106
2024-09-17T06:37:21.925;599616433598326400;4407.35;-65
2024-09-17T06:37:21.933;599616433606002560;4415.027;-58
2024-09-17T06:37:21.940;599616433613678848;4422.703;-84
2024-09-17T06:37:21.948;599616433621355136;4430.379;-70
2024-09-17T06:37:21.956;599616433629031296;4438.0557;-50
2024-09-17T06:37:21.963;599616433636707584;4445.732;-58
2024-09-17T06:37:21.971;599616433644383872;4453.4077;-50
2024-09-17T06:37:21.979;599616433652060160;4461.084;-31
2024-09-17T06:37:21.986;599616433659736320;4468.7607;-26
2024-09-17T06:37:21.994;599616433667412578;4476.4365;-7
2024-09-17T06:37:22.002;599616433675089024;4484.113;45
2024-09-17T06:37:22.009;599616433682765440;4491.7896;62
2024-09-17T06:37:22.017;599616433690441856;4499.466;45
2024-09-17T06:37:22.025;599616433698118144;4507.142;210
2024-09-17T06:37:22.032;599616433705794560;4514.8184;785
2024-09-17T06:37:22.040;599616433713470976;4522.495;1641
2024-09-17T06:37:22.048;599616433721147392;4530.1714;1766
2024-09-17T06:37:22.055;599616433728823808;4537.8477;534
2024-09-17T06:37:22.063;599616433736500096;4545.5244;-401
2024-09-17T06:37:22.071;599616433744176512;4553.2007;4
2024-09-17T06:37:22.078;599616433751852928;4560.877;234
2024-09-17T06:37:22.086;599616433759529344;4568.5537;-99
2024-09-17T06:37:22.094;599616433767205760;4576.23;-4
2024-09-17T06:37:22.101;599616433774882176;4583.9062;229
2024-09-17T06:37:22.109;599616433782558464;4591.582;103
2024-09-17T06:37:22.117;599616433790234880;4599.2593;7
2024-09-17T06:37:22.124;599616433797911296;4606.935;113
2024-09-17T06:37:22.132;599616433805587712;4614.612;159
2024-09-17T06:37:22.140;599616433813264128;4622.288;147
2024-09-17T06:37:22.147;599616433820940416;4629.9644;181
2024-09-17T06:37:22.155;599616433828616832;4637.6406;188
2024-09-17T06:37:22.163;599616433836293248;4645.317;219
2024-09-17T06:37:22.170;599616433843969664;4652.9937;270
2024-09-17T06:37:22.178;599616433851646080;4660.67;219
2024-09-17T06:37:22.186;599616433859322368;4668.346;198
2024-09-17T06:37:22.194;599616433866998784;4676.023;277
2024-09-17T06:37:22.201;599616433874675200;4683.699;302
2024-09-17T06:37:22.209;599616433882351616;4691.3755;294
2024-09-17T06:37:22.217;599616433890028032;4699.0522;374
2024-09-17T06:37:22.224;599616433897704448;4706.7285;432
2024-09-17T06:37:22.232;599616433905380736;4714.405;410
2024-09-17T06:37:22.240;599616433913057152;4722.081;473
2024-09-17T06:37:22.247;599616433920733568;4729.758;555
2024-09-17T06:37:22.255;599616433928409984;4737.434;473
2024-09-17T06:37:22.263;599616433936086400;4745.1104;413
2024-09-17T06:37:22.270;599616433943762688;4752.7866;478
2024-09-17T06:37:22.278;599616433951439104;4760.4634;476
2024-09-17T06:37:22.286;599616433959115520;4768.139;449
2024-09-17T06:37:22.293;599616433966791936;4775.8164;502
2024-09-17T06:37:22.301;599616433974468352;4783.492;502
2024-09-17T06:37:22.309;599616433982144640;4791.1685;459
2024-09-17T06:37:22.316;599616433989821056;4798.8447;413
2024-09-17T06:37:22.324;599616433997497472;4806.5215;282
2024-09-17T06:37:22.332;599616434005173888;4814.1978;195
2024-09-17T06:37:22.339;599616434012850304;4821.874;236
2024-09-17T06:37:22.347;599616434020526592;4829.551;239
2024-09-17T06:37:22.355;599616434028203008;4837.227;169
2024-09-17T06:37:22.362;599616434035879424;4844.9033;147
2024-09-17T06:37:22.370;599616434043555840;4852.58;161
2024-09-17T06:37:22.378;599616434051232256;4860.2563;190
2024-09-17T06:37:22.385;599616434058908672;4867.9326;219
2024-09-17T06:37:22.393;599616434066584960;4875.609;166
2024-09-17T06:37:22.401;599616434074261376;4883.2856;106
2024-09-17T06:37:22.408;599616434081937792;4890.962;161
2024-09-17T06:37:22.416;599616434089614208;4898.638;229
2024-09-17T06:37:22.424;599616434097290624;4906.315;198
2024-09-17T06:37:22.431;599616434104966912;4913.9907;161
2024-09-17T06:37:22.439;599616434112643328;4921.6675;190
2024-09-17T06:37:22.447;599616434120319744;4929.3433;212
2024-09-17T06:37:22.455;599616434127996160;4937.0205;205
2024-09-17T06:37:22.462;599616434135672576;4944.6963;236
2024-09-17T06:37:22.470;599616434143348864;4952.3726;280
2024-09-17T06:37:22.478;599616434151025280;4960.0493;253
2024-09-17T06:37:22.485;599616434158701696;4967.7256;210
2024-09-17T06:37:22.493;599616434166378112;4975.402;222
2024-09-17T06:37:22.501;599616434174054528;4983.0786;229
2024-09-17T06:37:22.508;599616434181730944;4990.755;224
2024-09-17T06:37:22.516;599616434189407232;4998.431;232
2024-09-17T06:37:22.524;599616434197083648;5006.1074;224
2024-09-17T06:37:22.531;599616434204760064;5013.784;234
2024-09-17T06:37:22.539;599616434212436480;5021.4604;258
2024-09-17T06:37:22.547;599616434220112896;5029.1367;219
2024-09-17T06:37:22.554;599616434227789181;5036.8135;152
2024-09-17T06:37:22.562;599616434235465344;5044.4893;142
2024-09-17T06:37:22.570;599616434243141504;5052.1655;188
2024-09-17T06:37:22.577;599616434250817536;5059.8413;207
2024-09-17T06:37:22.585;599616434258493696;5067.518;183
2024-09-17T06:37:22.593;599616434266169856;5075.194;159
2024-09-17T06:37:22.600;599616434273845888;5082.8696;154
2024-09-17T06:37:22.608;599616434281522048;5090.5464;188
2024-09-17T06:37:22.616;599616434289198080;5098.222;248
2024-09-17T06:37:22.623;599616434296874240;5105.8984;292
2024-09-17T06:37:22.631;599616434304550400;5113.574;265
2024-09-17T06:37:22.639;599616434312226432;5121.2505;183
2024-09-17T06:37:22.646;599616434319902592;5128.927;140
2024-09-17T06:37:22.654;599616434327578752;5136.6025;166
2024-09-17T06:37:22.662;599616434335254784;5144.279;181
2024-09-17T06:37:22.669;599616434342930944;5151.955;159
2024-09-17T06:37:22.677;599616434350607104;5159.631;171
2024-09-17T06:37:22.685;599616434358283136;5167.307;227
2024-09-17T06:37:22.692;599616434365959296;5174.9834;244
2024-09-17T06:37:22.700;599616434373635328;5182.6597;193
2024-09-17T06:37:22.708;599616434381311488;5190.3354;178
2024-09-17T06:37:22.716;599616434388987648;5198.011;227
2024-09-17T06:37:22.723;599616434396663680;5205.688;188
2024-09-17T06:37:22.731;599616434404339840;5213.364;142
2024-09-17T06:37:22.739;599616434412016000;5221.04;408
2024-09-17T06:37:22.746;599616434419692032;5228.716;1155
2024-09-17T06:37:22.754;599616434427368192;5236.392;2035
2024-09-17T06:37:22.762;599616434435044224;5244.0684;1807
2024-09-17T06:37:22.769;599616434442720384;5251.744;258
2024-09-17T06:37:22.777;599616434450396544;5259.421;-505
2024-09-17T06:37:22.785;599616434458072576;5267.0967;84
2024-09-17T06:37:22.792;599616434465748736;5274.7725;282
2024-09-17T06:37:22.800;599616434473424896;5282.4487;-29
2024-09-17T06:37:22.808;599616434481100928;5290.125;26
2024-09-17T06:37:22.815;599616434488777088;5297.8013;140
2024-09-17T06:37:22.823;599616434496453248;5305.477;26
2024-09-17T06:37:22.831;599616434504129280;5313.153;14
2024-09-17T06:37:22.838;599616434511805440;5320.8296;94
2024-09-17T06:37:22.846;599616434519481472;5328.5054;87
2024-09-17T06:37:22.854;599616434527157632;5336.1816;94
2024-09-17T06:37:22.861;599616434534833792;5343.8574;147
2024-09-17T06:37:22.869;599616434542509824;5351.5337;132
2024-09-17T06:37:22.877;599616434550185984;5359.21;79
2024-09-17T06:37:22.884;599616434557862144;5366.886;89
2024-09-17T06:37:22.892;599616434565538176;5374.5625;135
2024-09-17T06:37:22.900;599616434573214336;5382.2383;152
2024-09-17T06:37:22.907;599616434580890496;5389.9146;142
2024-09-17T06:37:22.915;599616434588566528;5397.5903;118
2024-09-17T06:37:22.923;599616434596242688;5405.267;101
2024-09-17T06:37:22.930;599616434603918720;5412.943;113
2024-09-17T06:37:22.938;599616434611594880;5420.6187;132
2024-09-17T06:37:22.946;599616434619271040;5428.2954;174
2024-09-17T06:37:22.953;599616434626947072;5435.971;210
2024-09-17T06:37:22.961;599616434634623232;5443.6475;195
2024-09-17T06:37:22.969;599616434642299392;5451.323;178
2024-09-17T06:37:22.976;599616434649975424;5458.9995;195
2024-09-17T06:37:22.984;599616434657651584;5466.676;212
2024-09-17T06:37:22.992;599616434665327616;5474.3516;219
2024-09-17T06:37:23.000;599616434673003776;5482.028;236
2024-09-17T06:37:23.007;599616434680679936;5489.704;234
2024-09-17T06:37:23.015;599616434688355968;5497.38;176
2024-09-17T06:37:23.023;599616434696032128;5505.056;82
2024-09-17T06:37:23.030;599616434703708288;5512.732;7
2024-09-17T06:37:23.038;599616434711384320;5520.4087;-55
2024-09-17T06:37:23.046;599616434719060480;5528.0845;-128
2024-09-17T06:37:23.053;599616434726736640;5535.7603;-174
2024-09-17T06:37:23.061;599616434734412672;5543.437;-210
2024-09-17T06:37:23.069;599616434742088832;5551.113;-282
2024-09-17T06:37:23.076;599616434749764864;5558.789;-323
2024-09-17T06:37:23.084;599616434757441024;5566.465;-306
2024-09-17T06:37:23.092;599616434765117184;5574.141;-302
2024-09-17T06:37:23.099;599616434772793216;5581.8174;-309
2024-09-17T06:37:23.107;599616434780469376;5589.493;-333
2024-09-17T06:37:23.115;599616434788145438;5597.1694;-367
2024-09-17T06:37:23.122;599616434795821952;5604.846;-369
2024-09-17T06:37:23.130;599616434803498496;5612.5225;-350
2024-09-17T06:37:23.138;599616434811175040;5620.1987;-335
2024-09-17T06:37:23.145;599616434818851584;5627.8755;-338
2024-09-17T06:37:23.153;599616434826528128;5635.5522;-355
2024-09-17T06:37:23.161;599616434834204544;5643.2285;-355
2024-09-17T06:37:23.168;599616434841881088;5650.9053;-309
2024-09-17T06:37:23.176;599616434849557632;5658.5815;-282
2024-09-17T06:37:23.184;599616434857234176;5666.258;-326
2024-09-17T06:37:23.191;599616434864910720;5673.935;-357
2024-09-17T06:37:23.199;599616434872587264;5681.6113;-328
2024-09-17T06:37:23.207;599616434880263808;5689.2876;-287
2024-09-17T06:37:23.214;599616434887940352;5696.965;-282
2024-09-17T06:37:23.222;599616434895616896;5704.641;-282
2024-09-17T06:37:23.230;599616434903293440;5712.3174;-236
2024-09-17T06:37:23.237;599616434910969856;5719.9937;-212
2024-09-17T06:37:23.245;599616434918646400;5727.6704;-234
2024-09-17T06:37:23.253;599616434926322944;5735.347;-232
2024-09-17T06:37:23.261;599616434933999488;5743.0234;-217
2024-09-17T06:37:23.268;599616434941676032;5750.7;-217
2024-09-17T06:37:23.276;599616434949352576;5758.3765;-212
2024-09-17T06:37:23.284;599616434957029120;5766.0527;-207
2024-09-17T06:37:23.291;599616434964705664;5773.73;-207
2024-09-17T06:37:23.299;599616434972382208;5781.4062;-198
2024-09-17T06:37:23.307;599616434980058752;5789.0825;-120
2024-09-17T06:37:23.314;599616434987735168;5796.7593;-31
2024-09-17T06:37:23.322;599616434995411712;5804.4355;-41
2024-09-17T06:37:23.330;599616435003088256;5812.1123;-87
2024-09-17T06:37:23.337;599616435010764800;5819.7886;-91
2024-09-17T06:37:23.345;599616435018441344;5827.4653;-101
2024-09-17T06:37:23.353;599616435026117888;5835.142;-106
2024-09-17T06:37:23.360;599616435033794432;5842.8184;-55
2024-09-17T06:37:23.368;599616435041470976;5850.495;-43
2024-09-17T06:37:23.376;599616435049147520;5858.1714;-94
2024-09-17T06:37:23.383;599616435056824064;5865.8477;-74
2024-09-17T06:37:23.391;599616435064500480;5873.525;-12
2024-09-17T06:37:23.399;599616435072177024;5881.201;12
2024-09-17T06:37:23.406;599616435079853568;5888.8774;29
2024-09-17T06:37:23.414;599616435087530112;5896.554;31
2024-09-17T06:37:23.422;599616435095206656;5904.2305;-14
2024-09-17T06:37:23.429;599616435102883200;5911.907;31
2024-09-17T06:37:23.437;599616435110559744;5919.584;396
2024-09-17T06:37:23.445;599616435118236288;5927.2603;1215
2024-09-17T06:37:23.452;599616435125912832;5934.937;1981
2024-09-17T06:37:23.460;599616435133589376;5942.6133;1416
2024-09-17T06:37:23.468;599616435141265792;5950.29;-164
2024-09-17T06:37:23.475;599616435148942336;5957.9663;-577
2024-09-17T06:37:23.483;599616435156618880;5965.6426;84
2024-09-17T06:37:23.491;599616435164295424;5973.32;108
2024-09-17T06:37:23.498;599616435171971968;5980.996;-154
2024-09-17T06:37:23.506;599616435179648512;5988.6724;-14
2024-09-17T06:37:23.514;599616435187325056;5996.349;53
2024-09-17T06:37:23.522;599616435195001600;6004.0254;9
2024-09-17T06:37:23.529;599616435202678144;6011.702;55
2024-09-17T06:37:23.537;599616435210354688;6019.379;89
2024-09-17T06:37:23.545;599616435218031104;6027.055;118
2024-09-17T06:37:23.552;599616435225707648;6034.7314;82
2024-09-17T06:37:23.560;599616435233384192;6042.4077;33
2024-09-17T06:37:23.568;599616435241060736;6050.085;164
2024-09-17T06:37:23.575;599616435248737280;6057.761;210
2024-09-17T06:37:23.583;599616435256413824;6065.4375;82
2024-09-17T06:37:23.591;599616435264090368;6073.1147;113
2024-09-17T06:37:23.598;599616435271766912;6080.791;248
2024-09-17T06:37:23.606;599616435279443456;6088.4673;246
2024-09-17T06:37:23.614;599616435287120000;6096.144;178
2024-09-17T06:37:23.621;599616435294796416;6103.8203;246
2024-09-17T06:37:23.629;599616435302472960;6111.497;372
2024-09-17T06:37:23.637;599616435310149504;6119.174;323
2024-09-17T06:37:23.644;599616435317826048;6126.85;239
2024-09-17T06:37:23.652;599616435325502592;6134.5264;321
2024-09-17T06:37:23.660;599616435333179136;6142.2026;427
2024-09-17T06:37:23.667;599616435340855680;6149.88;418
2024-09-17T06:37:23.675;599616435348532213;6157.556;398
2024-09-17T06:37:23.683;599616435356208384;6165.2324;420
2024-09-17T06:37:23.690;599616435363884544;6172.9087;449
2024-09-17T06:37:23.698;599616435371560576;6180.5845;483
2024-09-17T06:37:23.706;599616435379236736;6188.2607;478
2024-09-17T06:37:23.713;599616435386912896;6195.937;447
2024-09-17T06:37:23.721;599616435394588928;6203.6133;432
2024-09-17T06:37:23.729;599616435402265088;6211.289;335
2024-09-17T06:37:23.736;599616435409941120;6218.965;203
2024-09-17T06:37:23.744;599616435417617280;6226.6416;186
2024-09-17T06:37:23.752;599616435425293440;6234.3174;203
2024-09-17T06:37:23.759;599616435432969472;6241.9937;159
2024-09-17T06:37:23.767;599616435440645632;6249.6694;118
2024-09-17T06:37:23.775;599616435448321792;6257.3457;140
2024-09-17T06:37:23.783;599616435455997824;6265.022;149
2024-09-17T06:37:23.790;599616435463673984;6272.6978;111
2024-09-17T06:37:23.798;599616435471350144;6280.3745;123
2024-09-17T06:37:23.806;599616435479026176;6288.0503;164
2024-09-17T06:37:23.813;599616435486702336;6295.726;174
2024-09-17T06:37:23.821;599616435494378368;6303.4023;174
2024-09-17T06:37:23.829;599616435502054528;6311.0786;152
2024-09-17T06:37:23.836;599616435509730688;6318.755;149
2024-09-17T06:37:23.844;599616435517406720;6326.4307;181
2024-09-17T06:37:23.852;599616435525082880;6334.1064;198
2024-09-17T06:37:23.859;599616435532759040;6341.783;203
2024-09-17T06:37:23.867;599616435540435072;6349.459;215
2024-09-17T06:37:23.875;599616435548111232;6357.1353;212
2024-09-17T06:37:23.882;599616435555787264;6364.811;200
2024-09-17T06:37:23.890;599616435563463424;6372.4873;224
2024-09-17T06:37:23.898;599616435571139584;6380.1636;251
2024-09-17T06:37:23.905;599616435578815616;6387.8394;241
2024-09-17T06:37:23.913;599616435586491776;6395.516;234
2024-09-17T06:37:23.921;599616435594167936;6403.192;241
2024-09-17T06:37:23.928;599616435601843968;6410.8677;234
2024-09-17T06:37:23.936;599616435609520128;6418.544;205
2024-09-17T06:37:23.944;599616435617196288;6426.2207;203
2024-09-17T06:37:23.951;599616435624872320;6433.8965;224
2024-09-17T06:37:23.959;599616435632548480;6441.5723;224
2024-09-17T06:37:23.967;599616435640224512;6449.248;229
2024-09-17T06:37:23.974;599616435647900672;6456.925;246
2024-09-17T06:37:23.982;599616435655576832;6464.601;236
2024-09-17T06:37:23.990;599616435663252864;6472.277;224
2024-09-17T06:37:23.997;599616435670929024;6479.953;244
2024-09-17T06:37:24.005;599616435678605184;6487.6294;277
2024-09-17T06:37:24.013;599616435686281216;6495.305;304
2024-09-17T06:37:24.020;599616435693957376;6502.9814;297
2024-09-17T06:37:24.028;599616435701633536;6510.6577;256
2024-09-17T06:37:24.036;599616435709309568;6518.3335;222
2024-09-17T06:37:24.044;599616435716985728;6526.01;200
2024-09-17T06:37:24.051;599616435724661760;6533.6855;193
2024-09-17T06:37:24.059;599616435732337920;6541.3623;193
2024-09-17T06:37:24.067;599616435740014080;6549.038;176
2024-09-17T06:37:24.074;599616435747690112;6556.714;166
2024-09-17T06:37:24.082;599616435755366272;6564.3906;181
2024-09-17T06:37:24.090;599616435763042432;6572.0664;193
2024-09-17T06:37:24.097;599616435770718464;6579.7427;190
2024-09-17T06:37:24.105;599616435778394624;6587.4185;195
2024-09-17T06:37:24.113;599616435786070656;6595.0947;200
2024-09-17T06:37:24.120;599616435793746816;6602.771;193
2024-09-17T06:37:24.128;599616435801422976;6610.447;263
2024-09-17T06:37:24.136;599616435809099008;6618.123;635
2024-09-17T06:37:24.143;599616435816775168;6625.7993;1445
2024-09-17T06:37:24.151;599616435824451328;6633.475;1986
2024-09-17T06:37:24.159;599616435832127360;6641.1514;1121
2024-09-17T06:37:24.166;599616435839803520;6648.827;-258
2024-09-17T06:37:24.174;599616435847479680;6656.504;-309
2024-09-17T06:37:24.182;599616435855155712;6664.1797;215
2024-09-17T06:37:24.189;599616435862831872;6671.8555;50
2024-09-17T06:37:24.197;599616435870507904;6679.532;-120
2024-09-17T06:37:24.205;599616435878184064;6687.208;45
2024-09-17T06:37:24.212;599616435885860224;6694.8843;65
2024-09-17T06:37:24.220;599616435893536256;6702.56;4
2024-09-17T06:37:24.228;599616435901212416;6710.2363;38
2024-09-17T06:37:24.235;599616435908888470;6717.9126;50
2024-09-17T06:37:24.243;599616435916564992;6725.589;33
2024-09-17T06:37:24.251;599616435924241536;6733.2656;48
2024-09-17T06:37:24.258;599616435931918080;6740.942;60
2024-09-17T06:37:24.266;599616435939594624;6748.6187;53
2024-09-17T06:37:24.274;599616435947271168;6756.2954;58
2024-09-17T06:37:24.281;599616435954947584;6763.9717;77
2024-09-17T06:37:24.289;599616435962624128;6771.648;79
2024-09-17T06:37:24.297;599616435970300672;6779.324;79
2024-09-17T06:37:24.305;599616435977977216;6787.0015;106
2024-09-17T06:37:24.312;599616435985653760;6794.6777;132
2024-09-17T06:37:24.320;599616435993330304;6802.354;125
2024-09-17T06:37:24.328;599616436001006848;6810.0312;123
2024-09-17T06:37:24.335;599616436008683392;6817.7075;142
2024-09-17T06:37:24.343;599616436016359936;6825.384;178
2024-09-17T06:37:24.351;599616436024036480;6833.0605;219
2024-09-17T06:37:24.358;599616436031712896;6840.737;234
2024-09-17T06:37:24.366;599616436039389440;6848.4136;241
2024-09-17T06:37:24.374;599616436047065984;6856.0903;265
2024-09-17T06:37:24.381;599616436054742528;6863.7666;282
2024-09-17T06:37:24.389;599616436062419072;6871.443;277
2024-09-17T06:37:24.397;599616436070095616;6879.119;275
2024-09-17T06:37:24.404;599616436077772160;6886.7964;268
2024-09-17T06:37:24.412;599616436085448704;6894.4727;229
2024-09-17T06:37:24.420;599616436093125248;6902.149;154
2024-09-17T06:37:24.427;599616436100801792;6909.826;94
2024-09-17T06:37:24.435;599616436108478208;6917.502;62
2024-09-17T06:37:24.443;599616436116154752;6925.1787;21
2024-09-17T06:37:24.450;599616436123831296;6932.8555;-26
2024-09-17T06:37:24.458;599616436131507840;6940.5317;-67
2024-09-17T06:37:24.466;599616436139184384;6948.2085;-87
2024-09-17T06:37:24.473;599616436146860928;6955.8853;-91
2024-09-17T06:37:24.481;599616436154537472;6963.5615;-96
2024-09-17T06:37:24.489;599616436162214016;6971.238;-103
2024-09-17T06:37:24.496;599616436169890560;6978.914;-108
2024-09-17T06:37:24.504;599616436177567104;6986.5913;-91
2024-09-17T06:37:24.512;599616436185243520;6994.2676;-67
2024-09-17T06:37:24.519;599616436192920064;7001.944;-65
2024-09-17T06:37:24.527;599616436200596608;7009.6206;-77
2024-09-17T06:37:24.535;599616436208273152;7017.297;-82
2024-09-17T06:37:24.542;599616436215949696;7024.9736;-72
2024-09-17T06:37:24.550;599616436223626240;7032.6504;-58
2024-09-17T06:37:24.558;599616436231302784;7040.3267;-58
2024-09-17T06:37:24.566;599616436238979328;7048.0034;-70
2024-09-17T06:37:24.573;599616436246655872;7055.68;-72
2024-09-17T06:37:24.581;599616436254332416;7063.3564;-60
2024-09-17T06:37:24.589;599616436262008832;7071.0327;-53
2024-09-17T06:37:24.596;599616436269685376;7078.7095;-60
2024-09-17T06:37:24.604;599616436277361920;7086.386;-58
2024-09-17T06:37:24.612;599616436285038464;7094.0625;-38
2024-09-17T06:37:24.619;599616436292715008;7101.739;-38
2024-09-17T06:37:24.627;599616436300391552;7109.4155;-58
2024-09-17T06:37:24.635;599616436308068096;7117.092;-58
2024-09-17T06:37:24.642;599616436315744640;7124.7686;-55
2024-09-17T06:37:24.650;599616436323421184;7132.4453;-67
2024-09-17T06:37:24.658;599616436331097728;7140.1216;-67
2024-09-17T06:37:24.665;599616436338774144;7147.798;-65
2024-09-17T06:37:24.673;599616436346450688;7155.4746;-65
2024-09-17T06:37:24.681;599616436354127232;7163.1514;-50
2024-09-17T06:37:24.688;599616436361803776;7170.8276;-33
2024-09-17T06:37:24.696;599616436369480320;7178.5044;-16
2024-09-17T06:37:24.704;599616436377156864;7186.181;-9
2024-09-17T06:37:24.711;599616436384833408;7193.8574;-21
2024-09-17T06:37:24.719;599616436392509952;7201.534;-41
2024-09-17T06:37:24.727;599616436400186496;7209.2104;-62
2024-09-17T06:37:24.734;599616436407863040;7216.8867;-67
2024-09-17T06:37:24.742;599616436415539456;7224.5635;-62
2024-09-17T06:37:24.750;599616436423216000;7232.24;-70
2024-09-17T06:37:24.757;599616436430892544;7239.9165;-79
2024-09-17T06:37:24.765;599616436438569088;7247.593;-79
2024-09-17T06:37:24.773;599616436446245632;7255.2695;-70
2024-09-17T06:37:24.780;599616436453922176;7262.9463;-62
2024-09-17T06:37:24.788;599616436461598720;7270.6226;-67
2024-09-17T06:37:24.796;599616436469275245;7278.2993;-79
2024-09-17T06:37:24.803;599616436476951424;7285.9756;-103
2024-09-17T06:37:24.811;599616436484627584;7293.6514;-77
2024-09-17T06:37:24.819;599616436492303616;7301.3276;159
2024-09-17T06:37:24.827;599616436499979776;7309.004;761
2024-09-17T06:37:24.834;599616436507655936;7316.6797;1539
2024-09-17T06:37:24.842;599616436515331968;7324.356;1464
2024-09-17T06:37:24.850;599616436523008128;7332.032;142
2024-09-17T06:37:24.857;599616436530684160;7339.7085;-698
2024-09-17T06:37:24.865;599616436538360320;7347.3843;-241
2024-09-17T06:37:24.873;599616436546036480;7355.06;14
2024-09-17T06:37:24.880;599616436553712512;7362.737;-268
2024-09-17T06:37:24.888;599616436561388672;7370.4126;-239
2024-09-17T06:37:24.896;599616436569064832;7378.089;-99
2024-09-17T06:37:24.903;599616436576740864;7385.7646;-181
2024-09-17T06:37:24.911;599616436584417024;7393.441;-207
2024-09-17T06:37:24.919;599616436592093184;7401.117;-142
2024-09-17T06:37:24.926;599616436599769216;7408.793;-145
2024-09-17T06:37:24.934;599616436607445376;7416.4697;-147
2024-09-17T06:37:24.942;599616436615121408;7424.1455;-108
2024-09-17T06:37:24.949;599616436622797568;7431.8213;-106
2024-09-17T06:37:24.957;599616436630473728;7439.4976;-113
2024-09-17T06:37:24.965;599616436638149760;7447.174;-96
2024-09-17T06:37:24.972;599616436645825920;7454.85;-84
2024-09-17T06:37:24.980;599616436653502080;7462.526;-82
2024-09-17T06:37:24.988;599616436661178112;7470.2017;-62
2024-09-17T06:37:24.995;599616436668854272;7477.8784;-41
2024-09-17T06:37:25.003;599616436676530304;7485.554;-31
2024-09-17T06:37:25.011;599616436684206464;7493.2305;-24
2024-09-17T06:37:25.018;599616436691882624;7500.9067;-14
2024-09-17T06:37:25.026;599616436699558656;7508.5825;-2
2024-09-17T06:37:25.034;599616436707234816;7516.259;38
2024-09-17T06:37:25.041;599616436714910976;7523.935;96
2024-09-17T06:37:25.049;599616436722587008;7531.6113;113
2024-09-17T06:37:25.057;599616436730263168;7539.287;99
2024-09-17T06:37:25.064;599616436737939328;7546.9634;116
2024-09-17T06:37:25.072;599616436745615360;7554.639;140
2024-09-17T06:37:25.080;599616436753291520;7562.316;137
2024-09-17T06:37:25.087;599616436760967552;7569.9917;130
2024-09-17T06:37:25.095;599616436768643712;7577.6675;118
2024-09-17T06:37:25.103;599616436776319872;7585.344;74
2024-09-17T06:37:25.111;599616436783995904;7593.02;16
2024-09-17T06:37:25.118;599616436791672064;7600.6963;-38
2024-09-17T06:37:25.126;599616436799348224;7608.372;-91
2024-09-17T06:37:25.134;599616436807024256;7616.0483;-145
2024-09-17T06:37:25.141;599616436814700416;7623.7246;-181
2024-09-17T06:37:25.149;599616436822376576;7631.4004;-200
2024-09-17T06:37:25.157;599616436830052608;7639.0767;-207
2024-09-17T06:37:25.164;599616436837728768;7646.753;-207
2024-09-17T06:37:25.172;599616436845404800;7654.4287;-200
2024-09-17T06:37:25.180;599616436853080960;7662.105;-181
2024-09-17T06:37:25.187;599616436860757120;7669.781;-166
2024-09-17T06:37:25.195;599616436868433152;7677.4575;-176
2024-09-17T06:37:25.203;599616436876109312;7685.1333;-181
2024-09-17T06:37:25.210;599616436883785472;7692.809;-169
2024-09-17T06:37:25.218;599616436891461504;7700.486;-157
2024-09-17T06:37:25.226;599616436899137664;7708.1616;-149
2024-09-17T06:37:25.233;599616436906813696;7715.838;-135
2024-09-17T06:37:25.241;599616436914489856;7723.5137;-123
2024-09-17T06:37:25.249;599616436922166016;7731.19;-118
2024-09-17T06:37:25.256;599616436929842048;7738.866;-111
2024-09-17T06:37:25.264;599616436937518208;7746.542;-101
2024-09-17T06:37:25.272;599616436945194368;7754.2183;-99
2024-09-17T06:37:25.279;599616436952870400;7761.8945;-99
2024-09-17T06:37:25.287;599616436960546560;7769.5703;-94
2024-09-17T06:37:25.295;599616436968222720;7777.2466;-87
2024-09-17T06:37:25.302;599616436975898752;7784.923;-77
2024-09-17T06:37:25.310;599616436983574912;7792.599;-72
2024-09-17T06:37:25.318;599616436991250944;7800.275;-74
2024-09-17T06:37:25.325;599616436998927104;7807.9507;-79
2024-09-17T06:37:25.333;599616437006603264;7815.6274;-67
2024-09-17T06:37:25.341;599616437014279296;7823.303;-58
2024-09-17T06:37:25.348;599616437021955456;7830.9795;-62
2024-09-17T06:37:25.356;599616437029631502;7838.6553;-60
2024-09-17T06:37:25.364;599616437037307776;7846.332;-21
2024-09-17T06:37:25.372;599616437044984064;7854.0083;14
2024-09-17T06:37:25.379;599616437052660480;7861.684;19
2024-09-17T06:37:25.387;599616437060336768;7869.361;14
2024-09-17T06:37:25.395;599616437068013056;7877.037;9
2024-09-17T06:37:25.402;599616437075689344;7884.7134;-9
2024-09-17T06:37:25.410;599616437083365760;7892.3896;-33
2024-09-17T06:37:25.418;599616437091042048;7900.066;-33
2024-09-17T06:37:25.425;599616437098718336;7907.742;-29
2024-09-17T06:37:25.433;599616437106394624;7915.4185;-29
2024-09-17T06:37:25.441;599616437114071040;7923.095;-24
2024-09-17T06:37:25.448;599616437121747328;7930.7715;-16
2024-09-17T06:37:25.456;599616437129423616;7938.4473;-16
2024-09-17T06:37:25.464;599616437137099904;7946.1235;-7
2024-09-17T06:37:25.471;599616437144776320;7953.8003;-4
2024-09-17T06:37:25.479;599616437152452608;7961.4766;-16
2024-09-17T06:37:25.487;599616437160128896;7969.153;-16
2024-09-17T06:37:25.494;599616437167805312;7976.8296;84
2024-09-17T06:37:25.502;599616437175481600;7984.506;466
2024-09-17T06:37:25.510;599616437183157888;7992.1816;1208
2024-09-17T06:37:25.517;599616437190834176;7999.8584;1684
2024-09-17T06:37:25.525;599616437198510592;8007.5347;911
2024-09-17T06:37:25.533;599616437206186880;8015.211;-352
2024-09-17T06:37:25.540;599616437213863168;8022.887;-403
2024-09-17T06:37:25.548;599616437221539456;8030.5635;106
2024-09-17T06:37:25.556;599616437229215872;8038.2397;-31
2024-09-17T06:37:25.563;599616437236892160;8045.916;-174
2024-09-17T06:37:25.571;599616437244568448;8053.593;9
2024-09-17T06:37:25.579;599616437252244736;8061.269;0
2024-09-17T06:37:25.586;599616437259921152;8068.945;-94
2024-09-17T06:37:25.594;599616437267597440;8076.621;-36
2024-09-17T06:37:25.602;599616437275273728;8084.298;0
2024-09-17T06:37:25.609;599616437282950144;8091.974;-12
2024-09-17T06:37:25.617;599616437290626432;8099.6504;14
2024-09-17T06:37:25.625;599616437298302720;8107.3267;24
2024-09-17T06:37:25.633;599616437305979008;8115.003;14
2024-09-17T06:37:25.640;599616437313655424;8122.679;36
2024-09-17T06:37:25.648;599616437321331712;8130.3555;55
2024-09-17T06:37:25.656;599616437329008000;8138.032;53
2024-09-17T06:37:25.663;599616437336684288;8145.708;77
2024-09-17T06:37:25.671;599616437344360704;8153.385;111
2024-09-17T06:37:25.679;599616437352036992;8161.061;123
2024-09-17T06:37:25.686;599616437359713280;8168.7373;128
2024-09-17T06:37:25.694;599616437367389568;8176.4136;142
2024-09-17T06:37:25.702;599616437375065984;8184.0903;166
2024-09-17T06:37:25.709;599616437382742272;8191.7666;190
2024-09-17T06:37:25.717;599616437390418560;8199.442;212
2024-09-17T06:37:25.725;599616437398094976;8207.119;232
2024-09-17T06:37:25.732;599616437405771264;8214.795;246
2024-09-17T06:37:25.740;599616437413447552;8222.472;258
2024-09-17T06:37:25.748;599616437421123840;8230.148;273
2024-09-17T06:37:25.755;599616437428800256;8237.824;280
2024-09-17T06:37:25.763;599616437436476544;8245.5;282
2024-09-17T06:37:25.771;599616437444152832;8253.177;270
2024-09-17T06:37:25.778;599616437451829120;8260.854;234
2024-09-17T06:37:25.786;599616437459505536;8268.529;193
2024-09-17T06:37:25.794;599616437467181824;8276.206;154
2024-09-17T06:37:25.801;599616437474858112;8283.882;108
2024-09-17T06:37:25.809;599616437482534400;8291.559;62
2024-09-17T06:37:25.817;599616437490210816;8299.234;26
2024-09-17T06:37:25.824;599616437497887104;8306.911;0
2024-09-17T06:37:25.832;599616437505563392;8314.587;-19
2024-09-17T06:37:25.840;599616437513239808;8322.264;-33
2024-09-17T06:37:25.847;599616437520916096;8329.94;-33
2024-09-17T06:37:25.855;599616437528592384;8337.616;-16
2024-09-17T06:37:25.863;599616437536268672;8345.293;-14
2024-09-17T06:37:25.870;599616437543945088;8352.969;-21
2024-09-17T06:37:25.878;599616437551621376;8360.6455;-16
2024-09-17T06:37:25.886;599616437559297664;8368.321;-7
2024-09-17T06:37:25.893;599616437566973952;8375.998;-2
2024-09-17T06:37:25.901;599616437574650368;8383.675;7
2024-09-17T06:37:25.909;599616437582326656;8391.351;14
2024-09-17T06:37:25.917;599616437590003017;8399.027;12
2024-09-17T06:37:25.924;599616437597679360;8406.703;14
2024-09-17T06:37:25.932;599616437605355648;8414.38;26
2024-09-17T06:37:25.940;599616437613032064;8422.056;19
2024-09-17T06:37:25.947;599616437620708352;8429.732;12
2024-09-17T06:37:25.955;599616437628384640;8437.409;29
2024-09-17T06:37:25.963;599616437636060928;8445.085;33
2024-09-17T06:37:25.970;599616437643737344;8452.762;26
2024-09-17T06:37:25.978;599616437651413632;8460.4375;36
2024-09-17T06:37:25.986;599616437659089920;8468.114;38
2024-09-17T06:37:25.993;599616437666766208;8475.79;14
2024-09-17T06:37:26.001;599616437674442624;8483.467;0
2024-09-17T06:37:26.009;599616437682118912;8491.144;9
2024-09-17T06:37:26.016;599616437689795200;8498.819;31
2024-09-17T06:37:26.024;599616437697471488;8506.495;48
2024-09-17T06:37:26.032;599616437705147904;8514.172;45
2024-09-17T06:37:26.039;599616437712824192;8521.849;43
2024-09-17T06:37:26.047;599616437720500480;8529.524;87
2024-09-17T06:37:26.055;599616437728176896;8537.2;108
2024-09-17T06:37:26.062;599616437735853184;8544.877;77
2024-09-17T06:37:26.070;599616437743529472;8552.554;53
2024-09-17T06:37:26.078;599616437751205760;8560.2295;43
2024-09-17T06:37:26.085;599616437758882176;8567.906;36
2024-09-17T06:37:26.093;599616437766558464;8575.582;36
2024-09-17T06:37:26.101;599616437774234752;8583.259;36
2024-09-17T06:37:26.108;599616437781911040;8590.935;29
2024-09-17T06:37:26.116;599616437789587456;8598.612;21
2024-09-17T06:37:26.124;599616437797263744;8606.288;29
2024-09-17T06:37:26.131;599616437804940032;8613.964;38
2024-09-17T06:37:26.139;599616437812616320;8621.641;50
2024-09-17T06:37:26.147;599616437820292736;8629.316;43
2024-09-17T06:37:26.154;599616437827969024;8636.993;21
2024-09-17T06:37:26.162;599616437835645312;8644.67;72
2024-09-17T06:37:26.170;599616437843321728;8652.346;355
2024-09-17T06:37:26.178;599616437850998016;8660.022;1073
2024-09-17T06:37:26.185;599616437858674304;8667.698;1846
2024-09-17T06:37:26.193;599616437866350592;8675.375;1409
2024-09-17T06:37:26.201;599616437874027008;8683.051;-87
2024-09-17T06:37:26.208;599616437881703296;8690.727;-555
2024-09-17T06:37:26.216;599616437889379584;8698.404;45
2024-09-17T06:37:26.224;599616437897055872;8706.08;72
2024-09-17T06:37:26.231;599616437904732288;8713.757;-186
2024-09-17T06:37:26.239;599616437912408576;8721.433;-24
2024-09-17T06:37:26.247;599616437920084864;8729.108;41
2024-09-17T06:37:26.254;599616437927761152;8736.785;-96
2024-09-17T06:37:26.262;599616437935437568;8744.461;-62
2024-09-17T06:37:26.270;599616437943113856;8752.139;26
2024-09-17T06:37:26.277;599616437950790144;8759.814;-2
2024-09-17T06:37:26.285;599616437958466560;8767.49;-7
2024-09-17T06:37:26.293;599616437966142848;8775.167;36
2024-09-17T06:37:26.300;599616437973819136;8782.843;24
2024-09-17T06:37:26.308;599616437981495424;8790.52;9
2024-09-17T06:37:26.316;599616437989171840;8798.195;38
2024-09-17T06:37:26.323;599616437996848128;8805.872;55
2024-09-17T06:37:26.331;599616438004524416;8813.549;55
2024-09-17T06:37:26.339;599616438012200704;8821.225;77
2024-09-17T06:37:26.346;599616438019877120;8828.901;91
2024-09-17T06:37:26.354;599616438027553408;8836.577;96
2024-09-17T06:37:26.362;599616438035229696;8844.253;116
2024-09-17T06:37:26.369;599616438042905984;8851.93;132
2024-09-17T06:37:26.377;599616438050582400;8859.606;147
2024-09-17T06:37:26.385;599616438058258688;8867.283;188
2024-09-17T06:37:26.392;599616438065934976;8874.959;217
2024-09-17T06:37:26.400;599616438073611392;8882.636;217
2024-09-17T06:37:26.408;599616438081287680;8890.312;224
2024-09-17T06:37:26.415;599616438088963968;8897.987;241
2024-09-17T06:37:26.423;599616438096640256;8905.664;251
2024-09-17T06:37:26.431;599616438104316672;8913.341;251
2024-09-17T06:37:26.439;599616438111992960;8921.018;251
2024-09-17T06:37:26.446;599616438119669248;8928.693;239
2024-09-17T06:37:26.454;599616438127345536;8936.369;186
2024-09-17T06:37:26.462;599616438135021952;8944.046;130
2024-09-17T06:37:26.469;599616438142698240;8951.722;99
2024-09-17T06:37:26.477;599616438150374534;8959.398;55
2024-09-17T06:37:26.485;599616438158050688;8967.075;-12
2024-09-17T06:37:26.492;599616438165726848;8974.751;-48
2024-09-17T06:37:26.500;599616438173402880;8982.427;-45
2024-09-17T06:37:26.508;599616438181079040;8990.104;-53
2024-09-17T06:37:26.515;599616438188755200;8997.779;-67
2024-09-17T06:37:26.523;599616438196431232;9005.455;-48
2024-09-17T06:37:26.531;599616438204107392;9013.131;-31
2024-09-17T06:37:26.538;599616438211783424;9020.808;-58
2024-09-17T06:37:26.546;599616438219459584;9028.483;-74
2024-09-17T06:37:26.554;599616438227135744;9036.16;-29
2024-09-17T06:37:26.561;599616438234811776;9043.836;-14
2024-09-17T06:37:26.569;599616438242487936;9051.512;-53
2024-09-17T06:37:26.577;599616438250164096;9059.1875;-33
2024-09-17T06:37:26.584;599616438257840128;9066.864;7
2024-09-17T06:37:26.592;599616438265516288;9074.541;-21
2024-09-17T06:37:26.600;599616438273192448;9082.217;-38
2024-09-17T06:37:26.607;599616438280868480;9089.893;-4
2024-09-17T06:37:26.615;599616438288544640;9097.568;-4
2024-09-17T06:37:26.623;599616438296220672;9105.244;-26
2024-09-17T06:37:26.630;599616438303896832;9112.921;-14
2024-09-17T06:37:26.638;599616438311572992;9120.597;-12
2024-09-17T06:37:26.646;599616438319249024;9128.272;-12
2024-09-17T06:37:26.653;599616438326925184;9135.949;7
2024-09-17T06:37:26.661;599616438334601344;9143.626;-7
2024-09-17T06:37:26.669;599616438342277376;9151.302;-19
2024-09-17T06:37:26.676;599616438349953536;9158.978;7
2024-09-17T06:37:26.684;599616438357629568;9166.653;0
2024-09-17T06:37:26.692;599616438365305728;9174.329;-16
2024-09-17T06:37:26.700;599616438372981888;9182.006;21
2024-09-17T06:37:26.707;599616438380657920;9189.683;60
2024-09-17T06:37:26.715;599616438388334080;9197.358;38
2024-09-17T06:37:26.723;599616438396010240;9205.034;38
2024-09-17T06:37:26.730;599616438403686272;9212.71;79
2024-09-17T06:37:26.738;599616438411362432;9220.387;43
2024-09-17T06:37:26.746;599616438419038592;9228.0625;-14
2024-09-17T06:37:26.753;599616438426714624;9235.738;0
2024-09-17T06:37:26.761;599616438434390784;9243.414;24
2024-09-17T06:37:26.769;599616438442066816;9251.091;16
2024-09-17T06:37:26.776;599616438449742976;9258.768;16
2024-09-17T06:37:26.784;599616438457419136;9266.443;26
2024-09-17T06:37:26.792;599616438465095168;9274.119;16
2024-09-17T06:37:26.799;599616438472771328;9281.795;4
2024-09-17T06:37:26.807;599616438480447488;9289.472;21
2024-09-17T06:37:26.815;599616438488123520;9297.147;33
2024-09-17T06:37:26.822;599616438495799680;9304.824;41
2024-09-17T06:37:26.830;599616438503475840;9312.5;224
2024-09-17T06:37:26.838;599616438511151872;9320.176;843
2024-09-17T06:37:26.845;599616438518828032;9327.852;1766
2024-09-17T06:37:26.853;599616438526504064;9335.528;1844
2024-09-17T06:37:26.861;599616438534180224;9343.204;413
2024-09-17T06:37:26.868;599616438541856384;9350.88;-652
2024-09-17T06:37:26.876;599616438549532416;9358.557;-190
2024-09-17T06:37:26.884;599616438557208576;9366.233;137
2024-09-17T06:37:26.891;599616438564884736;9373.909;-169
2024-09-17T06:37:26.899;599616438572560768;9381.585;-142
2024-09-17T06:37:26.907;599616438580236928;9389.261;19
2024-09-17T06:37:26.914;599616438587912960;9396.937;-55
2024-09-17T06:37:26.922;599616438595589120;9404.612;-74
2024-09-17T06:37:26.930;599616438603265280;9412.289;-7
2024-09-17T06:37:26.937;599616438610941312;9419.966;-16
2024-09-17T06:37:26.945;599616438618617472;9427.642;-26
2024-09-17T06:37:26.953;599616438626293632;9435.317;12
2024-09-17T06:37:26.960;599616438633969664;9442.994;26
2024-09-17T06:37:26.968;599616438641645824;9450.67;21
2024-09-17T06:37:26.976;599616438649321984;9458.346;21
2024-09-17T06:37:26.984;599616438656998016;9466.021;48
2024-09-17T06:37:26.991;599616438664674176;9473.698;79
2024-09-17T06:37:26.999;599616438672350208;9481.374;77
2024-09-17T06:37:27.007;599616438680026368;9489.051;82
2024-09-17T06:37:27.014;599616438687702528;9496.727;106
2024-09-17T06:37:27.022;599616438695378560;9504.402;123
2024-09-17T06:37:27.030;599616438703054720;9512.078;147
2024-09-17T06:37:27.037;599616438710730791;9519.755;171
2024-09-17T06:37:27.045;599616438718406912;9527.432;193
2024-09-17T06:37:27.053;599616438726083072;9535.107;219
2024-09-17T06:37:27.060;599616438733759104;9542.783;244
2024-09-17T06:37:27.068;599616438741435264;9550.459;261
2024-09-17T06:37:27.076;599616438749111424;9558.136;263
2024-09-17T06:37:27.083;599616438756787456;9565.812;263
2024-09-17T06:37:27.091;599616438764463616;9573.487;277
2024-09-17T06:37:27.099;599616438772139648;9581.163;282
2024-09-17T06:37:27.106;599616438779815808;9588.84;258
2024-09-17T06:37:27.114;599616438787491968;9596.517;207
2024-09-17T06:37:27.122;599616438795168000;9604.192;149
2024-09-17T06:37:27.129;599616438802844160;9611.868;101
2024-09-17T06:37:27.137;599616438810520320;9619.544;43
2024-09-17T06:37:27.145;599616438818196352;9627.22;-14
2024-09-17T06:37:27.152;599616438825872512;9634.896;-33
2024-09-17T06:37:27.160;599616438833548672;9642.573;-43
2024-09-17T06:37:27.168;599616438841224704;9650.249;-70
2024-09-17T06:37:27.175;599616438848900864;9657.925;-70
2024-09-17T06:37:27.183;599616438856576896;9665.601;-50
2024-09-17T06:37:27.191;599616438864253056;9673.277;-55
2024-09-17T06:37:27.198;599616438871929216;9680.953;-65
2024-09-17T06:37:27.206;599616438879605248;9688.629;-50
2024-09-17T06:37:27.214;599616438887281408;9696.305;-31
2024-09-17T06:37:27.221;599616438894957568;9703.981;-31
2024-09-17T06:37:27.229;599616438902633600;9711.658;-36
2024-09-17T06:37:27.237;599616438910309760;9719.334;-26
2024-09-17T06:37:27.245;599616438917985792;9727.01;-16
2024-09-17T06:37:27.252;599616438925661952;9734.686;-12
2024-09-17T06:37:27.260;599616438933338112;9742.362;-9
2024-09-17T06:37:27.268;599616438941014144;9750.038;-7
2024-09-17T06:37:27.275;599616438948690304;9757.715;-2
2024-09-17T06:37:27.283;599616438956366464;9765.391;2
2024-09-17T06:37:27.291;599616438964042496;9773.066;2
2024-09-17T06:37:27.298;599616438971718656;9780.742;2
2024-09-17T06:37:27.306;599616438979394816;9788.419;7
2024-09-17T06:37:27.314;599616438987070848;9796.095;12
2024-09-17T06:37:27.321;599616438994747008;9803.7705;4
2024-09-17T06:37:27.329;599616439002423040;9811.447;7
2024-09-17T06:37:27.337;599616439010099200;9819.124;19
2024-09-17T06:37:27.344;599616439017775360;9826.8;14
2024-09-17T06:37:27.352;599616439025451392;9834.476;4
2024-09-17T06:37:27.360;599616439033127552;9842.151;26
2024-09-17T06:37:27.367;599616439040803712;9849.827;50
2024-09-17T06:37:27.375;599616439048479744;9857.503;55
2024-09-17T06:37:27.383;599616439056155904;9865.18;62
2024-09-17T06:37:27.390;599616439063832064;9872.856;70
2024-09-17T06:37:27.398;599616439071508096;9880.532;53
2024-09-17T06:37:27.406;599616439079184256;9888.208;26
2024-09-17T06:37:27.413;599616439086860288;9895.885;24
2024-09-17T06:37:27.421;599616439094536448;9903.561;29
2024-09-17T06:37:27.429;599616439102212608;9911.236;29
2024-09-17T06:37:27.436;599616439109888640;9918.912;21
2024-09-17T06:37:27.444;599616439117564800;9926.589;19
2024-09-17T06:37:27.452;599616439125240960;9934.266;29
2024-09-17T06:37:27.459;599616439132916992;9941.941;41
2024-09-17T06:37:27.467;599616439140593152;9949.617;41
2024-09-17T06:37:27.475;599616439148269184;9957.293;31
2024-09-17T06:37:27.482;599616439155945344;9964.969;41
2024-09-17T06:37:27.490;599616439163621504;9972.6455;195
2024-09-17T06:37:27.498;599616439171297536;9980.322;744
2024-09-17T06:37:27.505;599616439178973696;9987.998;1653
2024-09-17T06:37:27.513;599616439186649856;9995.674;1841
2024-09-17T06:37:27.521;599616439194325888;10003.35;526
2024-09-17T06:37:27.529;599616439202002048;10011.026;-572
2024-09-17T06:37:27.536;599616439209678208;10018.702;-186
2024-09-17T06:37:27.544;599616439217354240;10026.378;159
2024-09-17T06:37:27.552;599616439225030400;10034.054;-140
2024-09-17T06:37:27.559;599616439232706432;10041.73;-140
2024-09-17T06:37:27.567;599616439240382592;10049.407;26
2024-09-17T06:37:27.575;599616439248058752;10057.083;-36
2024-09-17T06:37:27.582;599616439255734784;10064.759;-67
2024-09-17T06:37:27.590;599616439263410944;10072.435;-4
2024-09-17T06:37:27.598;599616439271087048;10080.11;0
2024-09-17T06:37:27.605;599616439278763648;10087.787;-16
2024-09-17T06:37:27.613;599616439286440192;10095.465;9
2024-09-17T06:37:27.621;599616439294116736;10103.141;26
2024-09-17T06:37:27.628;599616439301793280;10110.817;19
2024-09-17T06:37:27.636;599616439309469824;10118.494;36
2024-09-17T06:37:27.644;599616439317146240;10126.17;67
2024-09-17T06:37:27.651;599616439324822784;10133.847;72
2024-09-17T06:37:27.659;599616439332499328;10141.522;65
2024-09-17T06:37:27.667;599616439340175872;10149.2;82
2024-09-17T06:37:27.674;599616439347852416;10156.877;106
2024-09-17T06:37:27.682;599616439355528960;10164.553;120
2024-09-17T06:37:27.690;599616439363205504;10172.2295;135
2024-09-17T06:37:27.697;599616439370882048;10179.905;147
2024-09-17T06:37:27.705;599616439378558592;10187.582;171
2024-09-17T06:37:27.713;599616439386235136;10195.26;200
2024-09-17T06:37:27.720;599616439393911552;10202.936;217
2024-09-17T06:37:27.728;599616439401588096;10210.612;229
2024-09-17T06:37:27.736;599616439409264640;10218.289;248
2024-09-17T06:37:27.743;599616439416941184;10225.965;258
2024-09-17T06:37:27.751;599616439424617728;10233.642;263
2024-09-17T06:37:27.759;599616439432294272;10241.318;263
2024-09-17T06:37:27.766;599616439439970816;10248.995;251
2024-09-17T06:37:27.774;599616439447647360;10256.672;222
2024-09-17T06:37:27.782;599616439455323904;10264.348;171
2024-09-17T06:37:27.790;599616439463000448;10272.024;101
2024-09-17T06:37:27.797;599616439470676864;10279.7;50
2024-09-17T06:37:27.805;599616439478353408;10287.377;24
2024-09-17T06:37:27.813;599616439486029952;10295.055;-7
2024-09-17T06:37:27.820;599616439493706496;10302.73;-41
2024-09-17T06:37:27.828;599616439501383040;10310.407;-60
2024-09-17T06:37:27.836;599616439509059584;10318.084;-53
2024-09-17T06:37:27.843;599616439516736128;10325.76;-48
2024-09-17T06:37:27.851;599616439524412672;10333.437;-48
2024-09-17T06:37:27.859;599616439532089216;10341.113;-38
2024-09-17T06:37:27.866;599616439539765760;10348.79;-36
2024-09-17T06:37:27.874;599616439547442176;10356.466;-41
2024-09-17T06:37:27.882;599616439555118720;10364.143;-33
2024-09-17T06:37:27.889;599616439562795264;10371.819;-19
2024-09-17T06:37:27.897;599616439570471808;10379.495;-14
2024-09-17T06:37:27.905;599616439578148352;10387.172;-24
2024-09-17T06:37:27.912;599616439585824896;10394.85;-21
2024-09-17T06:37:27.920;599616439593501440;10402.525;2
2024-09-17T06:37:27.928;599616439601177984;10410.202;9
2024-09-17T06:37:27.935;599616439608854528;10417.879;-2
2024-09-17T06:37:27.943;599616439616531072;10425.555;2
2024-09-17T06:37:27.951;599616439624207488;10433.231;9
2024-09-17T06:37:27.958;599616439631884032;10440.908;0
2024-09-17T06:37:27.966;599616439639560576;10448.585;-2
2024-09-17T06:37:27.974;599616439647237120;10456.261;12
2024-09-17T06:37:27.981;599616439654913664;10463.9375;14
2024-09-17T06:37:27.989;599616439662590208;10471.614;2
2024-09-17T06:37:27.997;599616439670266752;10479.29;19
2024-09-17T06:37:28.004;599616439677943296;10486.968;36
2024-09-17T06:37:28.012;599616439685619840;10494.645;26
2024-09-17T06:37:28.020;599616439693296384;10502.32;45
2024-09-17T06:37:28.027;599616439700972800;10509.997;74
2024-09-17T06:37:28.035;599616439708649344;10517.673;77
2024-09-17T06:37:28.043;599616439716325888;10525.35;74
2024-09-17T06:37:28.051;599616439724002432;10533.026;43
2024-09-17T06:37:28.058;599616439731678976;10540.703;21
2024-09-17T06:37:28.066;599616439739355520;10548.38;36
2024-09-17T06:37:28.074;599616439747032064;10556.056;33
2024-09-17T06:37:28.081;599616439754708608;10563.732;12
2024-09-17T06:37:28.089;599616439762385152;10571.409;21
2024-09-17T06:37:28.097;599616439770061696;10579.085;41
2024-09-17T06:37:28.104;599616439777738112;10586.763;41
2024-09-17T06:37:28.112;599616439785414656;10594.439;45
2024-09-17T06:37:28.120;599616439793091200;10602.115;53
2024-09-17T06:37:28.127;599616439800767744;10609.792;36
2024-09-17T06:37:28.135;599616439808444288;10617.468;79
2024-09-17T06:37:28.143;599616439816120832;10625.145;357
2024-09-17T06:37:28.150;599616439823797376;10632.821;1012
2024-09-17T06:37:28.158;599616439831473823;10640.498;1711
2024-09-17T06:37:28.166;599616439839149952;10648.174;1310
2024-09-17T06:37:28.173;599616439846826112;10655.851;-99
2024-09-17T06:37:28.181;599616439854502144;10663.526;-534
2024-09-17T06:37:28.189;599616439862178304;10671.202;65
2024-09-17T06:37:28.196;599616439869854464;10678.878;96
2024-09-17T06:37:28.204;599616439877530496;10686.554;-157
2024-09-17T06:37:28.212;599616439885206656;10694.231;-26
2024-09-17T06:37:28.219;599616439892882688;10701.907;50
2024-09-17T06:37:28.227;599616439900558848;10709.583;-31
2024-09-17T06:37:28.235;599616439908235008;10717.259;-16
2024-09-17T06:37:28.242;599616439915911040;10724.935;26
2024-09-17T06:37:28.250;599616439923587200;10732.611;12
2024-09-17T06:37:28.258;599616439931263360;10740.287;21
2024-09-17T06:37:28.265;599616439938939392;10747.964;53
2024-09-17T06:37:28.273;599616439946615552;10755.64;60
2024-09-17T06:37:28.281;599616439954291712;10763.315;65
2024-09-17T06:37:28.288;599616439961967744;10770.992;74
2024-09-17T06:37:28.296;599616439969643904;10778.668;70
2024-09-17T06:37:28.304;599616439977319936;10786.344;87
2024-09-17T06:37:28.312;599616439984996096;10794.02;120
2024-09-17T06:37:28.319;599616439992672256;10801.696;125
2024-09-17T06:37:28.327;599616440000348288;10809.373;125
2024-09-17T06:37:28.335;599616440008024448;10817.049;157
2024-09-17T06:37:28.342;599616440015700608;10824.725;183
2024-09-17T06:37:28.350;599616440023376640;10832.4;190
2024-09-17T06:37:28.358;599616440031052800;10840.076;200
2024-09-17T06:37:28.365;599616440038728832;10847.753;229
2024-09-17T06:37:28.373;599616440046404992;10855.429;251
2024-09-17T06:37:28.381;599616440054081152;10863.105;251
2024-09-17T06:37:28.388;599616440061757184;10870.781;261
2024-09-17T06:37:28.396;599616440069433344;10878.458;275
2024-09-17T06:37:28.404;599616440077109504;10886.134;270
2024-09-17T06:37:28.411;599616440084785536;10893.81;268
2024-09-17T06:37:28.419;599616440092461696;10901.485;256
2024-09-17T06:37:28.427;599616440100137856;10909.161;203
2024-09-17T06:37:28.434;599616440107813888;10916.837;147
2024-09-17T06:37:28.442;599616440115490048;10924.515;106
2024-09-17T06:37:28.450;599616440123166080;10932.19;50
2024-09-17T06:37:28.457;599616440130842240;10939.866;0
2024-09-17T06:37:28.465;599616440138518400;10947.542;-24
2024-09-17T06:37:28.473;599616440146194432;10955.219;-31
2024-09-17T06:37:28.480;599616440153870592;10962.895;-41
2024-09-17T06:37:28.488;599616440161546752;10970.57;-41
2024-09-17T06:37:28.496;599616440169222784;10978.247;-29
2024-09-17T06:37:28.503;599616440176898944;10985.923;-26
2024-09-17T06:37:28.511;599616440184575104;10993.6;-36
2024-09-17T06:37:28.519;599616440192251136;11001.275;-31
2024-09-17T06:37:28.526;599616440199927296;11008.951;-19
2024-09-17T06:37:28.534;599616440207603328;11016.627;-9
2024-09-17T06:37:28.542;599616440215279488;11024.303;-4
2024-09-17T06:37:28.549;599616440222955648;11031.98;-12
2024-09-17T06:37:28.557;599616440230631680;11039.656;-12
2024-09-17T06:37:28.565;599616440238307840;11047.332;0
2024-09-17T06:37:28.573;599616440245984000;11055.008;0
2024-09-17T06:37:28.580;599616440253660032;11062.684;-7
2024-09-17T06:37:28.588;599616440261336192;11070.36;-4
2024-09-17T06:37:28.596;599616440269012224;11078.036;-2
2024-09-17T06:37:28.603;599616440276688384;11085.712;0
2024-09-17T06:37:28.611;599616440284364544;11093.389;4
2024-09-17T06:37:28.619;599616440292040576;11101.064;2
2024-09-17T06:37:28.626;599616440299716736;11108.741;12
2024-09-17T06:37:28.634;599616440307392896;11116.417;9
2024-09-17T06:37:28.642;599616440315068928;11124.093;4
2024-09-17T06:37:28.649;599616440322745088;11131.769;31
2024-09-17T06:37:28.657;599616440330421248;11139.444;65
2024-09-17T06:37:28.665;599616440338097280;11147.122;67
2024-09-17T06:37:28.672;599616440345773440;11154.798;58
2024-09-17T06:37:28.680;599616440353449472;11162.474;60
2024-09-17T06:37:28.688;599616440361125632;11170.149;38
2024-09-17T06:37:28.695;599616440368801792;11177.826;4
2024-09-17T06:37:28.703;599616440376477824;11185.502;7
2024-09-17T06:37:28.711;599616440384153984;11193.178;21
2024-09-17T06:37:28.718;599616440391830080;11200.8545;26
2024-09-17T06:37:28.726;599616440399506176;11208.53;21
2024-09-17T06:37:28.734;599616440407182336;11216.206;21
2024-09-17T06:37:28.741;599616440414858368;11223.883;36
2024-09-17T06:37:28.749;599616440422534528;11231.559;33
2024-09-17T06:37:28.757;599616440430210688;11239.234;29
2024-09-17T06:37:28.764;599616440437886720;11246.91;43
2024-09-17T06:37:28.772;599616440445562880;11254.587;111
2024-09-17T06:37:28.780;599616440453238912;11262.264;386
2024-09-17T06:37:28.787;599616440460915072;11269.939;1022
2024-09-17T06:37:28.795;599616440468591232;11277.615;1626
2024-09-17T06:37:28.803;599616440476267264;11285.291;1128
2024-09-17T06:37:28.810;599616440483943424;11292.967;-241
2024-09-17T06:37:28.818;599616440491619584;11300.644;-587
2024-09-17T06:37:28.826;599616440499295616;11308.319;45
2024-09-17T06:37:28.833;599616440506971776;11315.996;79
2024-09-17T06:37:28.841;599616440514647936;11323.672;-164
2024-09-17T06:37:28.849;599616440522323968;11331.349;-14
2024-09-17T06:37:28.857;599616440530000128;11339.024;55
2024-09-17T06:37:28.864;599616440537676160;11346.7;-43
2024-09-17T06:37:28.872;599616440545352320;11354.376;-9
2024-09-17T06:37:28.880;599616440553028480;11362.052;43
2024-09-17T06:37:28.887;599616440560704512;11369.728;19
2024-09-17T06:37:28.895;599616440568380672;11377.405;33
2024-09-17T06:37:28.903;599616440576056832;11385.081;67
2024-09-17T06:37:28.910;599616440583732864;11392.757;65
2024-09-17T06:37:28.918;599616440591409024;11400.433;70
2024-09-17T06:37:28.926;599616440599085056;11408.109;84
2024-09-17T06:37:28.933;599616440606761216;11415.785;87
2024-09-17T06:37:28.941;599616440614437376;11423.461;99
2024-09-17T06:37:28.949;599616440622113408;11431.138;128
2024-09-17T06:37:28.956;599616440629789568;11438.813;147
2024-09-17T06:37:28.964;599616440637465728;11446.49;154
2024-09-17T06:37:28.972;599616440645141760;11454.166;161
2024-09-17T06:37:28.979;599616440652817920;11461.842;176
2024-09-17T06:37:28.987;599616440660494080;11469.518;200
2024-09-17T06:37:28.995;599616440668170112;11477.193;224
2024-09-17T06:37:29.002;599616440675846272;11484.871;248
2024-09-17T06:37:29.010;599616440683522304;11492.547;265
2024-09-17T06:37:29.018;599616440691198464;11500.223;270
2024-09-17T06:37:29.025;599616440698874624;11507.898;277
2024-09-17T06:37:29.033;599616440706550656;11515.574;285
2024-09-17T06:37:29.041;599616440714226816;11523.251;287
2024-09-17T06:37:29.048;599616440721902976;11530.927;270
2024-09-17T06:37:29.056;599616440729579008;11538.603;232
2024-09-17T06:37:29.064;599616440737255168;11546.279;188
2024-09-17T06:37:29.071;599616440744931328;11553.956;140
2024-09-17T06:37:29.079;599616440752607360;11561.632;84
2024-09-17T06:37:29.087;599616440760283520;11569.308;41
2024-09-17T06:37:29.094;599616440767959552;11576.983;2
2024-09-17T06:37:29.102;599616440775635712;11584.659;-33
2024-09-17T06:37:29.110;599616440783311872;11592.335;-43
2024-09-17T06:37:29.118;599616440790987904;11600.013;-38
2024-09-17T06:37:29.125;599616440798664064;11607.688;-43
2024-09-17T06:37:29.133;599616440806340224;11615.364;-43
2024-09-17T06:37:29.141;599616440814016256;11623.04;-33
2024-09-17T06:37:29.148;599616440821692416;11630.717;-33
2024-09-17T06:37:29.156;599616440829368448;11638.393;-33
2024-09-17T06:37:29.164;599616440837044608;11646.068;-26
2024-09-17T06:37:29.171;599616440844720768;11653.745;-19
2024-09-17T06:37:29.179;599616440852396800;11661.421;-19
2024-09-17T06:37:29.187;599616440860072960;11669.097;-12
2024-09-17T06:37:29.194;599616440867749120;11676.773;-9
2024-09-17T06:37:29.202;599616440875425152;11684.449;-12
2024-09-17T06:37:29.210;599616440883101312;11692.125;-2
2024-09-17T06:37:29.217;599616440890777472;11699.801;2
2024-09-17T06:37:29.225;599616440898453504;11707.478;-2
2024-09-17T06:37:29.233;599616440906129664;11715.154;-4
2024-09-17T06:37:29.240;599616440913805696;11722.83;0
2024-09-17T06:37:29.248;599616440921481856;11730.506;4
2024-09-17T06:37:29.256;599616440929158016;11738.182;7
2024-09-17T06:37:29.263;599616440936834048;11745.857;19
2024-09-17T06:37:29.271;599616440944510208;11753.534;38
2024-09-17T06:37:29.279;599616440952186337;11761.21;48
2024-09-17T06:37:29.286;599616440959862912;11768.888;62
2024-09-17T06:37:29.294;599616440967539456;11776.563;77
2024-09-17T06:37:29.302;599616440975216000;11784.24;72
2024-09-17T06:37:29.309;599616440982892544;11791.917;43
2024-09-17T06:37:29.317;599616440990569088;11799.593;9
2024-09-17T06:37:29.325;599616440998245504;11807.27;7
2024-09-17T06:37:29.332;599616441005922048;11814.945;24
2024-09-17T06:37:29.340;599616441013598592;11822.623;12
2024-09-17T06:37:29.348;599616441021275136;11830.299;7
2024-09-17T06:37:29.355;599616441028951680;11837.976;21
2024-09-17T06:37:29.363;599616441036628224;11845.652;21
2024-09-17T06:37:29.371;599616441044304768;11853.328;7
2024-09-17T06:37:29.379;599616441051981312;11861.005;12
2024-09-17T06:37:29.386;599616441059657856;11868.683;19
2024-09-17T06:37:29.394;599616441067334400;11876.358;45
2024-09-17T06:37:29.402;599616441075010816;11884.035;186
2024-09-17T06:37:29.409;599616441082687360;11891.711;577
2024-09-17T06:37:29.417;599616441090363904;11899.388;1252
2024-09-17T06:37:29.425;599616441098040448;11907.064;1537
2024-09-17T06:37:29.432;599616441105716992;11914.741;599
2024-09-17T06:37:29.440;599616441113393536;11922.418;-548
2024-09-17T06:37:29.448;599616441121070080;11930.094;-374
2024-09-17T06:37:29.455;599616441128746624;11937.7705;161
2024-09-17T06:37:29.463;599616441136423168;11945.447;-31
2024-09-17T06:37:29.471;599616441144099712;11953.123;-159
2024-09-17T06:37:29.478;599616441151776128;11960.8;21
2024-09-17T06:37:29.486;599616441159452672;11968.478;19
2024-09-17T06:37:29.494;599616441167129216;11976.153;-29
2024-09-17T06:37:29.501;599616441174805760;11983.83;31
2024-09-17T06:37:29.509;599616441182482304;11991.506;36
2024-09-17T06:37:29.517;599616441190158848;11999.183;12
2024-09-17T06:37:29.524;599616441197835392;12006.859;38
2024-09-17T06:37:29.532;599616441205511936;12014.536;55
2024-09-17T06:37:29.540;599616441213188480;12022.213;48
2024-09-17T06:37:29.547;599616441220865024;12029.889;58
2024-09-17T06:37:29.555;599616441228541440;12037.565;87
2024-09-17T06:37:29.563;599616441236217984;12045.242;103
2024-09-17T06:37:29.570;599616441243894528;12052.918;101
2024-09-17T06:37:29.578;599616441251571072;12060.595;111
2024-09-17T06:37:29.586;599616441259247616;12068.272;132
2024-09-17T06:37:29.593;599616441266924160;12075.948;149
2024-09-17T06:37:29.601;599616441274600704;12083.625;164
2024-09-17T06:37:29.609;599616441282277248;12091.301;188
2024-09-17T06:37:29.616;599616441289953792;12098.978;207
2024-09-17T06:37:29.624;599616441297630336;12106.654;215
2024-09-17T06:37:29.632;599616441305306752;12114.331;224
2024-09-17T06:37:29.640;599616441312983296;12122.008;248
2024-09-17T06:37:29.647;599616441320659840;12129.684;263
2024-09-17T06:37:29.655;599616441328336384;12137.36;258
2024-09-17T06:37:29.663;599616441336012928;12145.037;253
2024-09-17T06:37:29.670;599616441343689472;12152.713;246
2024-09-17T06:37:29.678;599616441351366016;12160.391;224
2024-09-17T06:37:29.686;599616441359042560;12168.067;210
2024-09-17T06:37:29.693;599616441366719104;12175.743;195
2024-09-17T06:37:29.701;599616441374395648;12183.42;140
2024-09-17T06:37:29.709;599616441382072064;12191.096;77
2024-09-17T06:37:29.716;599616441389748608;12198.772;43
2024-09-17T06:37:29.724;599616441397425152;12206.448;14
2024-09-17T06:37:29.732;599616441405101696;12214.126;-16
2024-09-17T06:37:29.739;599616441412778240;12221.803;-31
2024-09-17T06:37:29.747;599616441420454784;12229.479;-31
2024-09-17T06:37:29.755;599616441428131328;12237.155;-36
2024-09-17T06:37:29.762;599616441435807872;12244.832;-38
2024-09-17T06:37:29.770;599616441443484416;12252.508;-26
2024-09-17T06:37:29.778;599616441451160960;12260.186;-2
2024-09-17T06:37:29.785;599616441458837376;12267.861;2
2024-09-17T06:37:29.793;599616441466513920;12275.538;-4
2024-09-17T06:37:29.801;599616441474190464;12283.215;2
2024-09-17T06:37:29.808;599616441481867008;12290.891;4
2024-09-17T06:37:29.816;599616441489543552;12298.567;0
2024-09-17T06:37:29.824;599616441497220096;12306.243;4
2024-09-17T06:37:29.831;599616441504896640;12313.921;12
2024-09-17T06:37:29.839;599616441512573112;12321.598;9
2024-09-17T06:37:29.847;599616441520249216;12329.273;4
2024-09-17T06:37:29.854;599616441527925376;12336.949;7
2024-09-17T06:37:29.862;599616441535601408;12344.625;9
2024-09-17T06:37:29.870;599616441543277568;12352.301;9
2024-09-17T06:37:29.877;599616441550953728;12359.978;21
2024-09-17T06:37:29.885;599616441558629760;12367.654;41
2024-09-17T06:37:29.893;599616441566305920;12375.33;48
2024-09-17T06:37:29.901;599616441573981952;12383.006;60
2024-09-17T06:37:29.908;599616441581658112;12390.683;79
2024-09-17T06:37:29.916;599616441589334272;12398.358;82
2024-09-17T06:37:29.924;599616441597010304;12406.034;60
2024-09-17T06:37:29.931;599616441604686464;12413.71;21
2024-09-17T06:37:29.939;599616441612362624;12421.387;0
2024-09-17T06:37:29.947;599616441620038656;12429.0625;4
2024-09-17T06:37:29.954;599616441627714816;12436.739;9
2024-09-17T06:37:29.962;599616441635390976;12444.415;12
2024-09-17T06:37:29.970;599616441643067008;12452.091;14
2024-09-17T06:37:29.977;599616441650743168;12459.767;12
2024-09-17T06:37:29.985;599616441658419200;12467.443;9
2024-09-17T06:37:29.993;599616441666095360;12475.119;12
2024-09-17T06:37:30.000;599616441673771520;12482.796;19
2024-09-17T06:37:30.008;599616441681447552;12490.472;29
2024-09-17T06:37:30.016;599616441689123712;12498.147;91
2024-09-17T06:37:30.023;599616441696799872;12505.824;357
2024-09-17T06:37:30.031;599616441704475904;12513.5;913
2024-09-17T06:37:30.039;599616441712152064;12521.176;1365
2024-09-17T06:37:30.046;599616441719828096;12528.852;874
2024-09-17T06:37:30.054;599616441727504256;12536.528;-212
2024-09-17T06:37:30.062;599616441735180416;12544.205;-413
2024-09-17T06:37:30.069;599616441742856448;12551.881;70
2024-09-17T06:37:30.077;599616441750532608;12559.557;43
2024-09-17T06:37:30.085;599616441758208768;12567.232;-140
2024-09-17T06:37:30.092;599616441765884800;12574.908;-4
2024-09-17T06:37:30.100;599616441773560960;12582.585;33
2024-09-17T06:37:30.108;599616441781237120;12590.262;-50
2024-09-17T06:37:30.115;599616441788913152;12597.9375;-21
2024-09-17T06:37:30.123;599616441796589312;12605.613;21
2024-09-17T06:37:30.131;599616441804265344;12613.289;0
2024-09-17T06:37:30.138;599616441811941504;12620.966;2
2024-09-17T06:37:30.146;599616441819617664;12628.642;33
2024-09-17T06:37:30.154;599616441827293696;12636.317;38
2024-09-17T06:37:30.161;599616441834969856;12643.993;38
2024-09-17T06:37:30.169;599616441842646016;12651.67;53
2024-09-17T06:37:30.177;599616441850322048;12659.347;70
2024-09-17T06:37:30.185;599616441857998208;12667.022;84
2024-09-17T06:37:30.192;599616441865674368;12674.698;91
2024-09-17T06:37:30.200;599616441873350400;12682.374;101
2024-09-17T06:37:30.208;599616441881026560;12690.051;116
2024-09-17T06:37:30.215;599616441888702592;12697.727;132
2024-09-17T06:37:30.223;599616441896378752;12705.403;149
2024-09-17T06:37:30.231;599616441904054912;12713.079;164
2024-09-17T06:37:30.238;599616441911730944;12720.755;178
2024-09-17T06:37:30.246;599616441919407104;12728.431;193
2024-09-17T06:37:30.254;599616441927083264;12736.107;207
2024-09-17T06:37:30.261;599616441934759296;12743.783;210
2024-09-17T06:37:30.269;599616441942435456;12751.459;205
2024-09-17T06:37:30.277;599616441950111488;12759.135;210
2024-09-17T06:37:30.284;599616441957787648;12766.8125;212
2024-09-17T06:37:30.292;599616441965463808;12774.488;198
2024-09-17T06:37:30.300;599616441973139840;12782.164;171
2024-09-17T06:37:30.307;599616441980816000;12789.84;135
2024-09-17T06:37:30.315;599616441988492160;12797.516;101
2024-09-17T06:37:30.323;599616441996168192;12805.191;74
2024-09-17T06:37:30.330;599616442003844352;12812.868;41
2024-09-17T06:37:30.338;599616442011520512;12820.545;0
2024-09-17T06:37:30.346;599616442019196544;12828.221;-19
2024-09-17T06:37:30.353;599616442026872704;12835.896;-21
2024-09-17T06:37:30.361;599616442034548736;12843.573;-24
2024-09-17T06:37:30.369;599616442042224896;12851.249;-31
2024-09-17T06:37:30.376;599616442049901056;12858.925;-33
2024-09-17T06:37:30.384;599616442057577088;12866.601;-29
2024-09-17T06:37:30.392;599616442065253248;12874.277;-26
2024-09-17T06:37:30.399;599616442072929369;12881.954;-21
2024-09-17T06:37:30.407;599616442080605568;12889.63;-19
2024-09-17T06:37:30.415;599616442088281728;12897.306;-16
2024-09-17T06:37:30.422;599616442095957760;12904.981;-7
2024-09-17T06:37:30.430;599616442103633920;12912.658;2
2024-09-17T06:37:30.438;599616442111310080;12920.334;-2
2024-09-17T06:37:30.446;599616442118986112;12928.01;-12
2024-09-17T06:37:30.453;599616442126662272;12935.687;-14
2024-09-17T06:37:30.461;599616442134338304;12943.362;-12
2024-09-17T06:37:30.469;599616442142014464;12951.038;-4
2024-09-17T06:37:30.476;599616442149690624;12958.715;-4
2024-09-17T06:37:30.484;599616442157366656;12966.391;-7
2024-09-17T06:37:30.492;599616442165042816;12974.066;0
2024-09-17T06:37:30.499;599616442172718976;12981.742;16
2024-09-17T06:37:30.507;599616442180395008;12989.42;33
2024-09-17T06:37:30.515;599616442188071168;12997.096;53
2024-09-17T06:37:30.522;599616442195747328;13004.771;65
2024-09-17T06:37:30.530;599616442203423360;13012.447;53
2024-09-17T06:37:30.538;599616442211099520;13020.123;26
2024-09-17T06:37:30.545;599616442218775552;13027.799;-2
2024-09-17T06:37:30.553;599616442226451712;13035.476;-14
2024-09-17T06:37:30.561;599616442234127872;13043.152;-12
2024-09-17T06:37:30.568;599616442241803904;13050.828;-14
2024-09-17T06:37:30.576;599616442249480064;13058.504;-12
2024-09-17T06:37:30.584;599616442257156224;13066.181;-7
2024-09-17T06:37:30.591;599616442264832256;13073.856;-4
2024-09-17T06:37:30.599;599616442272508416;13081.532;-2
2024-09-17T06:37:30.607;599616442280184448;13089.208;7
2024-09-17T06:37:30.614;599616442287860608;13096.884;12
2024-09-17T06:37:30.622;599616442295536768;13104.562;19
2024-09-17T06:37:30.630;599616442303212800;13112.237;106
2024-09-17T06:37:30.637;599616442310888960;13119.913;415
2024-09-17T06:37:30.645;599616442318565120;13127.589;978
2024-09-17T06:37:30.653;599616442326241152;13135.265;1276
2024-09-17T06:37:30.660;599616442333917312;13142.941;596
2024-09-17T06:37:30.668;599616442341593472;13150.617;-362
2024-09-17T06:37:30.676;599616442349269504;13158.294;-309
2024-09-17T06:37:30.683;599616442356945664;13165.97;130
2024-09-17T06:37:30.691;599616442364621696;13173.6455;-12
2024-09-17T06:37:30.699;599616442372297856;13181.322;-157
2024-09-17T06:37:30.706;599616442379974016;13188.998;4
2024-09-17T06:37:30.714;599616442387650048;13196.674;12
2024-09-17T06:37:30.722;599616442395326208;13204.35;-67
2024-09-17T06:37:30.730;599616442403002368;13212.027;-16
2024-09-17T06:37:30.737;599616442410678400;13219.703;14
2024-09-17T06:37:30.745;599616442418354560;13227.379;-9
2024-09-17T06:37:30.753;599616442426030720;13235.055;2
2024-09-17T06:37:30.760;599616442433706752;13242.73;24
2024-09-17T06:37:30.768;599616442441382912;13250.406;31
2024-09-17T06:37:30.776;599616442449058944;13258.083;43
2024-09-17T06:37:30.783;599616442456735104;13265.759;55
2024-09-17T06:37:30.791;599616442464411264;13273.436;62
2024-09-17T06:37:30.799;599616442472087296;13281.111;72
2024-09-17T06:37:30.806;599616442479763456;13288.788;84
2024-09-17T06:37:30.814;599616442487439616;13296.464;96
2024-09-17T06:37:30.822;599616442495115648;13304.14;113
2024-09-17T06:37:30.829;599616442502791808;13311.815;130
2024-09-17T06:37:30.837;599616442510467840;13319.491;140
2024-09-17T06:37:30.845;599616442518144000;13327.168;149
2024-09-17T06:37:30.852;599616442525820160;13334.845;166
2024-09-17T06:37:30.860;599616442533496192;13342.5205;181
2024-09-17T06:37:30.868;599616442541172352;13350.196;193
2024-09-17T06:37:30.875;599616442548848512;13357.872;203
2024-09-17T06:37:30.883;599616442556524544;13365.549;203
2024-09-17T06:37:30.891;599616442564200704;13373.225;198
2024-09-17T06:37:30.898;599616442571876864;13380.9;193
2024-09-17T06:37:30.906;599616442579552896;13388.577;181
2024-09-17T06:37:30.914;599616442587229056;13396.253;161
2024-09-17T06:37:30.921;599616442594905088;13403.929;132
2024-09-17T06:37:30.929;599616442602581248;13411.605;99
2024-09-17T06:37:30.937;599616442610257408;13419.281;70
2024-09-17T06:37:30.944;599616442617933440;13426.957;31
2024-09-17T06:37:30.952;599616442625609600;13434.633;-4
2024-09-17T06:37:30.960;599616442633285626;13442.31;-19
2024-09-17T06:37:30.967;599616442640962176;13449.986;-21
2024-09-17T06:37:30.975;599616442648638720;13457.663;-21
2024-09-17T06:37:30.983;599616442656315264;13465.339;-24
2024-09-17T06:37:30.991;599616442663991808;13473.016;-26
2024-09-17T06:37:30.998;599616442671668352;13480.692;-24
2024-09-17T06:37:31.006;599616442679344768;13488.368;-19
2024-09-17T06:37:31.014;599616442687021312;13496.046;-12
2024-09-17T06:37:31.021;599616442694697856;13503.722;-7
2024-09-17T06:37:31.029;599616442702374400;13511.398;-4
2024-09-17T06:37:31.037;599616442710050944;13519.075;-7
2024-09-17T06:37:31.044;599616442717727488;13526.751;-9
2024-09-17T06:37:31.052;599616442725404032;13534.428;-9
2024-09-17T06:37:31.060;599616442733080576;13542.105;-7
2024-09-17T06:37:31.067;599616442740757120;13549.781;-4
2024-09-17T06:37:31.075;599616442748433664;13557.458;-7
2024-09-17T06:37:31.083;599616442756110080;13565.134;-12
2024-09-17T06:37:31.090;599616442763786624;13572.811;-12
2024-09-17T06:37:31.098;599616442771463168;13580.486;-9
2024-09-17T06:37:31.106;599616442779139712;13588.164;-9
2024-09-17T06:37:31.113;599616442786816256;13595.841;-9
2024-09-17T06:37:31.121;599616442794492800;13603.517;-7
2024-09-17T06:37:31.129;599616442802169344;13611.193;2
2024-09-17T06:37:31.136;599616442809845888;13618.87;16
2024-09-17T06:37:31.144;599616442817522432;13626.546;38
2024-09-17T06:37:31.152;599616442825198976;13634.223;65
2024-09-17T06:37:31.159;599616442832875392;13641.899;70
2024-09-17T06:37:31.167;599616442840551936;13649.576;43
2024-09-17T06:37:31.175;599616442848228480;13657.253;16
2024-09-17T06:37:31.182;599616442855905024;13664.929;0
2024-09-17T06:37:31.190;599616442863581568;13672.605;-7
2024-09-17T06:37:31.198;599616442871258112;13680.281;-9
2024-09-17T06:37:31.205;599616442878934656;13687.959;-7
2024-09-17T06:37:31.213;599616442886611200;13695.636;-4
2024-09-17T06:37:31.221;599616442894287744;13703.312;-4
2024-09-17T06:37:31.228;599616442901964288;13710.988;-4
2024-09-17T06:37:31.236;599616442909640704;13718.665;0
2024-09-17T06:37:31.244;599616442917317248;13726.341;7
2024-09-17T06:37:31.252;599616442924993792;13734.018;14
2024-09-17T06:37:31.259;599616442932670336;13741.694;19
2024-09-17T06:37:31.267;599616442940346880;13749.371;99
2024-09-17T06:37:31.275;599616442948023424;13757.048;413
2024-09-17T06:37:31.282;599616442955699968;13764.724;986
2024-09-17T06:37:31.290;599616442963376512;13772.4;1242
2024-09-17T06:37:31.298;599616442971053056;13780.076;524
2024-09-17T06:37:31.305;599616442978729600;13787.754;-369
2024-09-17T06:37:31.313;599616442986406016;13795.431;-253
2024-09-17T06:37:31.321;599616442994082560;13803.106;142
2024-09-17T06:37:31.328;599616443001759104;13810.783;-31
2024-09-17T06:37:31.336;599616443009435648;13818.46;-145
2024-09-17T06:37:31.344;599616443017112192;13826.136;14
2024-09-17T06:37:31.351;599616443024788736;13833.813;2
2024-09-17T06:37:31.359;599616443032465280;13841.489;-65
2024-09-17T06:37:31.367;599616443040141824;13849.166;-12
2024-09-17T06:37:31.374;599616443047818368;13856.843;12
2024-09-17T06:37:31.382;599616443055494912;13864.519;-9
2024-09-17T06:37:31.390;599616443063171328;13872.195;7
2024-09-17T06:37:31.397;599616443070847872;13879.871;33
2024-09-17T06:37:31.405;599616443078524416;13887.549;33
2024-09-17T06:37:31.413;599616443086200960;13895.226;36
2024-09-17T06:37:31.420;599616443093877504;13902.901;50
2024-09-17T06:37:31.428;599616443101554048;13910.578;65
2024-09-17T06:37:31.436;599616443109230592;13918.255;74
2024-09-17T06:37:31.443;599616443116907136;13925.931;84
2024-09-17T06:37:31.451;599616443124583680;13933.608;96
2024-09-17T06:37:31.459;599616443132260224;13941.284;113
2024-09-17T06:37:31.466;599616443139936640;13948.961;128
2024-09-17T06:37:31.474;599616443147613184;13956.637;140
2024-09-17T06:37:31.482;599616443155289728;13964.313;154
2024-09-17T06:37:31.489;599616443162966272;13971.99;164
2024-09-17T06:37:31.497;599616443170642816;13979.666;174
2024-09-17T06:37:31.505;599616443178319360;13987.344;183
2024-09-17T06:37:31.513;599616443185995904;13995.0205;190
2024-09-17T06:37:31.520;599616443193672401;14002.696;190
2024-09-17T06:37:31.528;599616443201348608;14010.372;188
2024-09-17T06:37:31.536;599616443209024768;14018.049;186
2024-09-17T06:37:31.543;599616443216700800;14025.725;183
2024-09-17T06:37:31.551;599616443224376960;14033.4;169
2024-09-17T06:37:31.559;599616443232053120;14041.077;140
2024-09-17T06:37:31.566;599616443239729152;14048.754;96
2024-09-17T06:37:31.574;599616443247405312;14056.43;60
2024-09-17T06:37:31.582;599616443255081344;14064.105;33
2024-09-17T06:37:31.589;599616443262757504;14071.781;9
2024-09-17T06:37:31.597;599616443270433664;14079.457;-14
2024-09-17T06:37:31.605;599616443278109696;14087.133;-26
2024-09-17T06:37:31.612;599616443285785856;14094.811;-29
2024-09-17T06:37:31.620;599616443293462016;14102.486;-29
2024-09-17T06:37:31.628;599616443301138048;14110.162;-29
2024-09-17T06:37:31.635;599616443308814208;14117.838;-31
2024-09-17T06:37:31.643;599616443316490368;14125.515;-21
2024-09-17T06:37:31.651;599616443324166400;14133.19;-12
2024-09-17T06:37:31.658;599616443331842560;14140.866;-9
2024-09-17T06:37:31.666;599616443339518592;14148.542;-9
2024-09-17T06:37:31.674;599616443347194752;14156.219;-7
2024-09-17T06:37:31.681;599616443354870912;14163.8955;-4
2024-09-17T06:37:31.689;599616443362546944;14171.571;-2
2024-09-17T06:37:31.697;599616443370223104;14179.247;-2
2024-09-17T06:37:31.704;599616443377899264;14186.923;-2
2024-09-17T06:37:31.712;599616443385575296;14194.599;-2
2024-09-17T06:37:31.720;599616443393251456;14202.275;-4
2024-09-17T06:37:31.727;599616443400927488;14209.952;-7
2024-09-17T06:37:31.735;599616443408603648;14217.628;-12
2024-09-17T06:37:31.743;599616443416279808;14225.304;-9
2024-09-17T06:37:31.750;599616443423955840;14232.9795;-4
2024-09-17T06:37:31.758;599616443431632000;14240.656;-7
2024-09-17T06:37:31.766;599616443439308160;14248.332;-9
2024-09-17T06:37:31.774;599616443446984192;14256.008;-12
2024-09-17T06:37:31.781;599616443454660352;14263.685;-9
2024-09-17T06:37:31.789;599616443462336512;14271.361;-7
2024-09-17T06:37:31.797;599616443470012544;14279.037;-7
2024-09-17T06:37:31.804;599616443477688704;14286.713;-7
2024-09-17T06:37:31.812;599616443485364736;14294.389;-7
2024-09-17T06:37:31.820;599616443493040896;14302.064;-2
2024-09-17T06:37:31.827;599616443500717056;14309.74;16
2024-09-17T06:37:31.835;599616443508393088;14317.417;43
2024-09-17T06:37:31.843;599616443516069248;14325.094;72
2024-09-17T06:37:31.850;599616443523745408;14332.77;79
2024-09-17T06:37:31.858;599616443531421440;14340.445;50
2024-09-17T06:37:31.866;599616443539097600;14348.122;19
2024-09-17T06:37:31.873;599616443546773760;14355.798;4
2024-09-17T06:37:31.881;599616443554449792;14363.474;4
2024-09-17T06:37:31.889;599616443562125952;14371.149;0
2024-09-17T06:37:31.896;599616443569801984;14378.826;-7
2024-09-17T06:37:31.904;599616443577478144;14386.502;-4
2024-09-17T06:37:31.912;599616443585154304;14394.179;0
2024-09-17T06:37:31.919;599616443592830336;14401.8545;0
2024-09-17T06:37:31.927;599616443600506496;14409.53;4
2024-09-17T06:37:31.935;599616443608182656;14417.206;9
2024-09-17T06:37:31.942;599616443615858688;14424.883;9
2024-09-17T06:37:31.950;599616443623534848;14432.56;12
2024-09-17T06:37:31.958;599616443631210880;14440.235;62
2024-09-17T06:37:31.965;599616443638887040;14447.911;302
2024-09-17T06:37:31.973;599616443646563200;14455.587;838
2024-09-17T06:37:31.981;599616443654239232;14463.263;1278
2024-09-17T06:37:31.988;599616443661915392;14470.939;816
2024-09-17T06:37:31.996;599616443669591552;14478.615;-176
2024-09-17T06:37:32.004;599616443677267584;14486.291;-328
2024-09-17T06:37:32.011;599616443684943744;14493.968;106
2024-09-17T06:37:32.019;599616443692619904;14501.645;38
2024-09-17T06:37:32.027;599616443700295936;14509.32;-149
2024-09-17T06:37:32.034;599616443707972096;14516.996;-14
2024-09-17T06:37:32.042;599616443715648128;14524.672;26
2024-09-17T06:37:32.050;599616443723324288;14532.348;-55
2024-09-17T06:37:32.058;599616443731000448;14540.024;-26
2024-09-17T06:37:32.065;599616443738676480;14547.701;14
2024-09-17T06:37:32.073;599616443746352640;14555.377;-7
2024-09-17T06:37:32.081;599616443754028658;14563.053;-2
2024-09-17T06:37:32.088;599616443761704832;14570.729;24
2024-09-17T06:37:32.096;599616443769380992;14578.405;29
2024-09-17T06:37:32.104;599616443777057024;14586.081;36
2024-09-17T06:37:32.111;599616443784733184;14593.757;55
2024-09-17T06:37:32.119;599616443792409344;14601.433;65
2024-09-17T06:37:32.127;599616443800085376;14609.109;70
2024-09-17T06:37:32.134;599616443807761536;14616.786;84
2024-09-17T06:37:32.142;599616443815437568;14624.462;96
2024-09-17T06:37:32.150;599616443823113728;14632.138;108
2024-09-17T06:37:32.157;599616443830789888;14639.813;120
2024-09-17T06:37:32.165;599616443838465920;14647.489;130
2024-09-17T06:37:32.173;599616443846142080;14655.166;142
2024-09-17T06:37:32.180;599616443853818240;14662.843;159
2024-09-17T06:37:32.188;599616443861494272;14670.519;171
2024-09-17T06:37:32.196;599616443869170432;14678.194;181
2024-09-17T06:37:32.203;599616443876846592;14685.87;188
2024-09-17T06:37:32.211;599616443884522624;14693.547;193
2024-09-17T06:37:32.219;599616443892198784;14701.223;195
2024-09-17T06:37:32.226;599616443899874816;14708.898;190
2024-09-17T06:37:32.234;599616443907550976;14716.575;178
2024-09-17T06:37:32.242;599616443915227136;14724.252;164
2024-09-17T06:37:32.249;599616443922903168;14731.928;145
2024-09-17T06:37:32.257;599616443930579328;14739.604;113
2024-09-17T06:37:32.265;599616443938255488;14747.279;79
2024-09-17T06:37:32.272;599616443945931520;14754.955;45
2024-09-17T06:37:32.280;599616443953607680;14762.631;16
2024-09-17T06:37:32.288;599616443961283712;14770.308;-4
2024-09-17T06:37:32.295;599616443968959872;14777.984;-19
2024-09-17T06:37:32.303;599616443976636032;14785.66;-29
2024-09-17T06:37:32.311;599616443984312064;14793.336;-29
2024-09-17T06:37:32.319;599616443991988224;14801.013;-29
2024-09-17T06:37:32.326;599616443999664384;14808.688;-29
2024-09-17T06:37:32.334;599616444007340416;14816.364;-29
2024-09-17T06:37:32.342;599616444015016576;14824.04;-26
2024-09-17T06:37:32.349;599616444022692736;14831.717;-21
2024-09-17T06:37:32.357;599616444030368768;14839.393;-14
2024-09-17T06:37:32.365;599616444038044928;14847.069;-9
2024-09-17T06:37:32.372;599616444045720960;14854.745;-4
2024-09-17T06:37:32.380;599616444053397120;14862.421;-4
2024-09-17T06:37:32.388;599616444061073280;14870.097;-4
2024-09-17T06:37:32.395;599616444068749312;14877.773;-2
2024-09-17T06:37:32.403;599616444076425472;14885.45;-2
2024-09-17T06:37:32.411;599616444084101632;14893.126;-4
2024-09-17T06:37:32.418;599616444091777664;14900.802;-4
2024-09-17T06:37:32.426;599616444099453824;14908.478;-7
2024-09-17T06:37:32.434;599616444107129984;14916.154;-12
2024-09-17T06:37:32.441;599616444114806016;14923.83;-12
2024-09-17T06:37:32.449;599616444122482176;14931.506;-9
2024-09-17T06:37:32.457;599616444130158208;14939.182;-12
2024-09-17T06:37:32.464;599616444137834368;14946.858;-12
2024-09-17T06:37:32.472;599616444145510528;14954.535;-7
2024-09-17T06:37:32.480;599616444153186560;14962.211;-4
2024-09-17T06:37:32.487;599616444160862720;14969.887;-4
2024-09-17T06:37:32.495;599616444168538880;14977.5625;-2
2024-09-17T06:37:32.503;599616444176214912;14985.238;0
2024-09-17T06:37:32.510;599616444183891072;14992.915;0
2024-09-17T06:37:32.518;599616444191567104;15000.592;0
2024-09-17T06:37:32.526;599616444199243264;15008.268;0
2024-09-17T06:37:32.533;599616444206919424;15015.943;0
2024-09-17T06:37:32.541;599616444214595456;15023.619;2
2024-09-17T06:37:32.549;599616444222271616;15031.296;4
2024-09-17T06:37:32.556;599616444229947776;15038.972;7
2024-09-17T06:37:32.564;599616444237623808;15046.647;9
2024-09-17T06:37:32.572;599616444245299968;15054.323;7
2024-09-17T06:37:32.580;599616444252976128;15062.0;9
2024-09-17T06:37:32.587;599616444260652160;15069.677;21
2024-09-17T06:37:32.595;599616444268328320;15077.353;45
2024-09-17T06:37:32.603;599616444276004352;15085.028;72
2024-09-17T06:37:32.610;599616444283680512;15092.704;84
2024-09-17T06:37:32.618;599616444291356672;15100.381;70
2024-09-17T06:37:32.626;599616444299032704;15108.057;50
2024-09-17T06:37:32.633;599616444306708864;15115.733;31
2024-09-17T06:37:32.641;599616444314384915;15123.409;19
2024-09-17T06:37:32.649;599616444322061056;15131.085;19
2024-09-17T06:37:32.656;599616444329737216;15138.761;16
2024-09-17T06:37:32.664;599616444337413248;15146.4375;14
2024-09-17T06:37:32.672;599616444345089408;15154.113;21
2024-09-17T06:37:32.679;599616444352765568;15161.789;21
2024-09-17T06:37:32.687;599616444360441600;15169.466;19
2024-09-17T06:37:32.695;599616444368117760;15177.143;21
2024-09-17T06:37:32.702;599616444375793792;15184.818;21
2024-09-17T06:37:32.710;599616444383469952;15192.494;14
2024-09-17T06:37:32.718;599616444391146112;15200.17;55
2024-09-17T06:37:32.725;599616444398822144;15207.846;287
2024-09-17T06:37:32.733;599616444406498304;15215.521;821
2024-09-17T06:37:32.741;599616444414174464;15223.198;1285
2024-09-17T06:37:32.748;599616444421850496;15230.875;867
2024-09-17T06:37:32.756;599616444429526656;15238.551;-135
2024-09-17T06:37:32.764;599616444437202816;15246.227;-348
2024-09-17T06:37:32.771;599616444444878848;15253.903;79
2024-09-17T06:37:32.779;599616444452555008;15261.579;38
2024-09-17T06:37:32.787;599616444460231040;15269.255;-157
2024-09-17T06:37:32.794;599616444467907200;15276.931;-29
2024-09-17T06:37:32.802;599616444475583360;15284.607;24
2024-09-17T06:37:32.810;599616444483259392;15292.283;-60
2024-09-17T06:37:32.817;599616444490935552;15299.96;-36
2024-09-17T06:37:32.825;599616444498611712;15307.636;7
2024-09-17T06:37:32.833;599616444506287744;15315.312;-9
2024-09-17T06:37:32.840;599616444513963904;15322.987;-2
2024-09-17T06:37:32.848;599616444521639936;15330.664;19
2024-09-17T06:37:32.856;599616444529316096;15338.341;21
2024-09-17T06:37:32.864;599616444536992256;15346.017;26
2024-09-17T06:37:32.871;599616444544668288;15353.692;43
2024-09-17T06:37:32.879;599616444552344448;15361.368;50
2024-09-17T06:37:32.887;599616444560020608;15369.045;58
2024-09-17T06:37:32.894;599616444567696640;15376.721;74
2024-09-17T06:37:32.902;599616444575372800;15384.396;84
2024-09-17T06:37:32.910;599616444583048960;15392.072;94
2024-09-17T06:37:32.917;599616444590724992;15399.749;108
2024-09-17T06:37:32.925;599616444598401152;15407.426;125
2024-09-17T06:37:32.933;599616444606077184;15415.102;135
2024-09-17T06:37:32.940;599616444613753344;15422.777;147
2024-09-17T06:37:32.948;599616444621429504;15430.453;159
2024-09-17T06:37:32.956;599616444629105536;15438.129;169
2024-09-17T06:37:32.963;599616444636781696;15445.806;176
2024-09-17T06:37:32.971;599616444644457856;15453.482;181
2024-09-17T06:37:32.979;599616444652133888;15461.158;183
2024-09-17T06:37:32.986;599616444659810048;15468.834;178
2024-09-17T06:37:32.994;599616444667486208;15476.511;169
2024-09-17T06:37:33.002;599616444675162240;15484.187;159
2024-09-17T06:37:33.009;599616444682838400;15491.862;140
2024-09-17T06:37:33.017;599616444690514432;15499.538;108
2024-09-17T06:37:33.025;599616444698190592;15507.214;74
2024-09-17T06:37:33.032;599616444705866752;15514.891;48
2024-09-17T06:37:33.040;599616444713542784;15522.567;19
2024-09-17T06:37:33.048;599616444721218944;15530.243;-2
2024-09-17T06:37:33.055;599616444728895104;15537.919;-16
2024-09-17T06:37:33.063;599616444736571136;15545.595;-29
2024-09-17T06:37:33.071;599616444744247296;15553.271;-33
2024-09-17T06:37:33.078;599616444751923328;15560.947;-36
2024-09-17T06:37:33.086;599616444759599488;15568.624;-33
2024-09-17T06:37:33.094;599616444767275648;15576.3;-26
2024-09-17T06:37:33.101;599616444774951680;15583.976;-19
2024-09-17T06:37:33.109;599616444782627840;15591.651;-19
2024-09-17T06:37:33.117;599616444790304000;15599.328;-14
2024-09-17T06:37:33.125;599616444797980032;15607.004;-7
2024-09-17T06:37:33.132;599616444805656192;15614.68;-4
2024-09-17T06:37:33.140;599616444813332352;15622.356;0
2024-09-17T06:37:33.148;599616444821008384;15630.033;4
2024-09-17T06:37:33.155;599616444828684544;15637.709;7
2024-09-17T06:37:33.163;599616444836360576;15645.385;7
2024-09-17T06:37:33.171;599616444844036736;15653.061;7
2024-09-17T06:37:33.178;599616444851712896;15660.736;7
2024-09-17T06:37:33.186;599616444859388928;15668.412;4
2024-09-17T06:37:33.194;599616444867065088;15676.089;0
2024-09-17T06:37:33.201;599616444874741172;15683.766;-2
2024-09-17T06:37:33.209;599616444882417536;15691.441;0
2024-09-17T06:37:33.217;599616444890093952;15699.118;2
2024-09-17T06:37:33.224;599616444897770496;15706.794;0
2024-09-17T06:37:33.232;599616444905446912;15714.471;0
2024-09-17T06:37:33.240;599616444913123328;15722.147;0
2024-09-17T06:37:33.247;599616444920799872;15729.824;-2
2024-09-17T06:37:33.255;599616444928476288;15737.501;-4
2024-09-17T06:37:33.263;599616444936152704;15745.177;-2
2024-09-17T06:37:33.270;599616444943829248;15752.854;2
2024-09-17T06:37:33.278;599616444951505664;15760.529;7
2024-09-17T06:37:33.286;599616444959182208;15768.206;4
2024-09-17T06:37:33.293;599616444966858624;15775.882;2
2024-09-17T06:37:33.301;599616444974535040;15783.56;4
2024-09-17T06:37:33.309;599616444982211584;15791.235;7
2024-09-17T06:37:33.316;599616444989888000;15798.912;9
2024-09-17T06:37:33.324;599616444997564416;15806.589;14
2024-09-17T06:37:33.332;599616445005240960;15814.265;16
2024-09-17T06:37:33.339;599616445012917376;15821.941;16
2024-09-17T06:37:33.347;599616445020593792;15829.617;16
2024-09-17T06:37:33.355;599616445028270336;15837.295;19
2024-09-17T06:37:33.362;599616445035946752;15844.971;19
2024-09-17T06:37:33.370;599616445043623168;15852.647;19
2024-09-17T06:37:33.378;599616445051299712;15860.323;21
2024-09-17T06:37:33.386;599616445058976128;15868.0;29
2024-09-17T06:37:33.393;599616445066652672;15875.676;33
2024-09-17T06:37:33.401;599616445074329088;15883.354;29
2024-09-17T06:37:33.409;599616445082005504;15891.03;38
2024-09-17T06:37:33.416;599616445089682048;15898.706;74
2024-09-17T06:37:33.424;599616445097358464;15906.383;111
2024-09-17T06:37:33.432;599616445105034880;15914.059;111
2024-09-17T06:37:33.439;599616445112711424;15921.735;79
2024-09-17T06:37:33.447;599616445120387840;15929.411;53
2024-09-17T06:37:33.455;599616445128064256;15937.089;43
2024-09-17T06:37:33.462;599616445135740800;15944.765;38
2024-09-17T06:37:33.470;599616445143417216;15952.441;29
2024-09-17T06:37:33.478;599616445151093632;15960.117;21
2024-09-17T06:37:33.485;599616445158770176;15967.794;24
2024-09-17T06:37:33.493;599616445166446592;15975.471;26
2024-09-17T06:37:33.501;599616445174123008;15983.147;24
2024-09-17T06:37:33.508;599616445181799552;15990.824;24
2024-09-17T06:37:33.516;599616445189475968;15998.5;26
