Phone timestamp;sensor timestamp [ns];timestamp [ms];ecg [uV]
2024-09-17T06:41:26.856;599616678488886400;0.0;645
2024-09-17T06:41:26.863;599616678496578688;7.692288;645
2024-09-17T06:41:26.871;599616678504270976;15.384576;642
2024-09-17T06:41:26.879;599616678511963264;23.076864;642
2024-09-17T06:41:26.886;599616678519655680;30.76928;640
2024-09-17T06:41:26.894;599616678527347968;38.461567;642
2024-09-17T06:41:26.902;599616678535040256;46.153854;659
2024-09-17T06:41:26.909;599616678542732544;53.846146;679
2024-09-17T06:41:26.917;599616678550424832;61.538433;693
2024-09-17T06:41:26.925;599616678558117120;69.23072;688
2024-09-17T06:41:26.932;599616678565809536;76.923134;664
2024-09-17T06:41:26.940;599616678573501824;84.615425;638
2024-09-17T06:41:26.948;599616678581194112;92.30771;626
2024-09-17T06:41:26.956;599616678588886400;100.0;626
2024-09-17T06:41:26.963;599616678596578688;107.69229;618
2024-09-17T06:41:26.971;599616678604270976;115.384575;609
2024-09-17T06:41:26.979;599616678611963264;123.076866;606
2024-09-17T06:41:26.986;599616678619655680;130.76929;604
2024-09-17T06:41:26.994;599616678627347968;138.46156;601
2024-09-17T06:41:27.002;599616678635040256;146.15385;601
2024-09-17T06:41:27.009;599616678642732544;153.84615;606
2024-09-17T06:41:27.017;599616678650424832;161.53844;604
2024-09-17T06:41:27.025;599616678658117120;169.23071;604
2024-09-17T06:41:27.032;599616678665809536;176.92314;669
2024-09-17T06:41:27.040;599616678673501824;184.61542;913
2024-09-17T06:41:27.048;599616678681194112;192.30771;1370
2024-09-17T06:41:27.056;599616678688886400;200.0;1633
2024-09-17T06:41:27.063;599616678696578688;207.69229;1111
2024-09-17T06:41:27.071;599616678704270976;215.38458;280
2024-09-17T06:41:27.079;599616678711963264;223.07686;236
2024-09-17T06:41:27.086;599616678719655680;230.76929;604
2024-09-17T06:41:27.094;599616678727347968;238.46156;531
2024-09-17T06:41:27.102;599616678735040256;246.15385;418
2024-09-17T06:41:27.109;599616678742732544;253.84615;538
2024-09-17T06:41:27.117;599616678750424832;261.53842;543
2024-09-17T06:41:27.125;599616678758117120;269.2307;480
2024-09-17T06:41:27.132;599616678765809536;276.92313;522
2024-09-17T06:41:27.140;599616678773501824;284.61542;546
2024-09-17T06:41:27.148;599616678781194112;292.3077;517
2024-09-17T06:41:27.156;599616678788886400;300.0;522
2024-09-17T06:41:27.163;599616678796578688;307.6923;534
2024-09-17T06:41:27.171;599616678804270976;315.38458;526
2024-09-17T06:41:27.179;599616678811963264;323.07687;534
2024-09-17T06:41:27.186;599616678819655680;330.7693;546
2024-09-17T06:41:27.194;599616678827347968;338.46158;548
2024-09-17T06:41:27.202;599616678835040256;346.15387;551
2024-09-17T06:41:27.209;599616678842732544;353.84613;551
2024-09-17T06:41:27.217;599616678850424832;361.53842;538
2024-09-17T06:41:27.225;599616678858117120;369.2307;534
2024-09-17T06:41:27.232;599616678865809536;376.92313;543
2024-09-17T06:41:27.240;599616678873501824;384.61542;555
2024-09-17T06:41:27.248;599616678881194112;392.3077;563
2024-09-17T06:41:27.256;599616678888886400;400.0;570
2024-09-17T06:41:27.263;599616678896578688;407.6923;577
2024-09-17T06:41:27.271;599616678904270976;415.38458;589
2024-09-17T06:41:27.279;599616678911963264;423.07687;604
2024-09-17T06:41:27.286;599616678919655680;430.7693;609
2024-09-17T06:41:27.294;599616678927347968;438.46158;609
2024-09-17T06:41:27.302;599616678935040256;446.15387;606
2024-09-17T06:41:27.309;599616678942732544;453.84613;606
2024-09-17T06:41:27.317;599616678950424832;461.53842;601
2024-09-17T06:41:27.325;599616678958117120;469.2307;587
2024-09-17T06:41:27.332;599616678965809536;476.92313;567
2024-09-17T06:41:27.340;599616678973501824;484.61542;541
2024-09-17T06:41:27.348;599616678981194112;492.3077;507
2024-09-17T06:41:27.356;599616678988886400;500.0;471
2024-09-17T06:41:27.363;599616678996578688;507.6923;444
2024-09-17T06:41:27.371;599616679004270976;515.3846;425
2024-09-17T06:41:27.379;599616679011963264;523.07684;396
2024-09-17T06:41:27.386;599616679019655680;530.7693;372
2024-09-17T06:41:27.394;599616679027347968;538.46155;369
2024-09-17T06:41:27.402;599616679035040256;546.1539;372
2024-09-17T06:41:27.409;599616679042732497;553.84607;360
2024-09-17T06:41:27.417;599616679050408320;561.5219;355
2024-09-17T06:41:27.425;599616679058084096;569.1977;360
2024-09-17T06:41:27.432;599616679065759872;576.8735;360
2024-09-17T06:41:27.440;599616679073435648;584.54926;362
2024-09-17T06:41:27.448;599616679081111424;592.22504;362
2024-09-17T06:41:27.455;599616679088787200;599.9008;360
2024-09-17T06:41:27.463;599616679096462848;607.5765;367
2024-09-17T06:41:27.471;599616679104138624;615.2522;372
2024-09-17T06:41:27.478;599616679111814400;622.928;364
2024-09-17T06:41:27.486;599616679119490176;630.60376;364
2024-09-17T06:41:27.494;599616679127165952;638.27954;374
2024-09-17T06:41:27.501;599616679134841728;645.9553;379
2024-09-17T06:41:27.509;599616679142517504;653.6311;379
2024-09-17T06:41:27.517;599616679150193280;661.3069;374
2024-09-17T06:41:27.524;599616679157869056;668.98267;364
2024-09-17T06:41:27.532;599616679165544832;676.65845;360
2024-09-17T06:41:27.540;599616679173220608;684.3342;357
2024-09-17T06:41:27.548;599616679180896384;692.01;352
2024-09-17T06:41:27.555;599616679188572032;699.6856;345
2024-09-17T06:41:27.563;599616679196247808;707.3614;340
2024-09-17T06:41:27.571;599616679203923584;715.0372;338
2024-09-17T06:41:27.578;599616679211599360;722.71295;340
2024-09-17T06:41:27.586;599616679219275136;730.38873;345
2024-09-17T06:41:27.594;599616679226950912;738.0645;335
2024-09-17T06:41:27.601;599616679234626688;745.7403;326
2024-09-17T06:41:27.609;599616679242302464;753.4161;328
2024-09-17T06:41:27.617;599616679249978240;761.09186;333
2024-09-17T06:41:27.624;599616679257654016;768.76764;335
2024-09-17T06:41:27.632;599616679265329792;776.4434;333
2024-09-17T06:41:27.640;599616679273005440;784.119;335
2024-09-17T06:41:27.647;599616679280681216;791.7948;348
2024-09-17T06:41:27.655;599616679288356992;799.4706;355
2024-09-17T06:41:27.663;599616679296032768;807.14636;369
2024-09-17T06:41:27.670;599616679303708544;814.82214;391
2024-09-17T06:41:27.678;599616679311384320;822.4979;396
2024-09-17T06:41:27.686;599616679319060096;830.1737;379
2024-09-17T06:41:27.693;599616679326735872;837.8495;352
2024-09-17T06:41:27.701;599616679334411648;845.52527;328
2024-09-17T06:41:27.709;599616679342087424;853.20105;326
2024-09-17T06:41:27.716;599616679349763200;860.8768;328
2024-09-17T06:41:27.724;599616679357438848;868.5524;321
2024-09-17T06:41:27.732;599616679365114624;876.2282;314
2024-09-17T06:41:27.739;599616679372790400;883.904;314
2024-09-17T06:41:27.747;599616679380466176;891.5798;306
2024-09-17T06:41:27.755;599616679388141952;899.25555;304
2024-09-17T06:41:27.762;599616679395817728;906.93134;316
2024-09-17T06:41:27.770;599616679403493504;914.6071;326
2024-09-17T06:41:27.778;599616679411169280;922.2829;340
2024-09-17T06:41:27.785;599616679418845056;929.9587;459
2024-09-17T06:41:27.793;599616679426520832;937.63446;807
2024-09-17T06:41:27.801;599616679434196608;945.3102;1300
2024-09-17T06:41:27.808;599616679441872384;952.98596;1348
2024-09-17T06:41:27.816;599616679449548032;960.6616;548
2024-09-17T06:41:27.824;599616679457223808;968.3374;-166
2024-09-17T06:41:27.832;599616679464899584;976.0132;62
2024-09-17T06:41:27.839;599616679472575360;983.68896;372
2024-09-17T06:41:27.847;599616679480251136;991.36475;200
2024-09-17T06:41:27.855;599616679487926912;999.0405;161
2024-09-17T06:41:27.862;599616679495602688;1006.7163;282
2024-09-17T06:41:27.870;599616679503278464;1014.3921;234
2024-09-17T06:41:27.878;599616679510954240;1022.0678;198
2024-09-17T06:41:27.885;599616679518630016;1029.7437;246
2024-09-17T06:41:27.893;599616679526305792;1037.4194;256
2024-09-17T06:41:27.901;599616679533981440;1045.0951;261
2024-09-17T06:41:27.908;599616679541657216;1052.7709;302
2024-09-17T06:41:27.916;599616679549332992;1060.4465;323
2024-09-17T06:41:27.924;599616679557008768;1068.1223;323
2024-09-17T06:41:27.931;599616679564684544;1075.7981;331
2024-09-17T06:41:27.939;599616679572360320;1083.4739;343
2024-09-17T06:41:27.947;599616679580036096;1091.1497;348
2024-09-17T06:41:27.954;599616679587711872;1098.8254;343
2024-09-17T06:41:27.962;599616679595387648;1106.5012;335
2024-09-17T06:41:27.970;599616679603063322;1114.1769;335
2024-09-17T06:41:27.977;599616679610739072;1121.8527;335
2024-09-17T06:41:27.985;599616679618414848;1129.5284;328
2024-09-17T06:41:27.993;599616679626090624;1137.2042;331
2024-09-17T06:41:28.000;599616679633766400;1144.88;355
2024-09-17T06:41:28.008;599616679641442176;1152.5558;379
2024-09-17T06:41:28.016;599616679649117952;1160.2316;401
2024-09-17T06:41:28.023;599616679656793600;1167.9072;415
2024-09-17T06:41:28.031;599616679664469376;1175.583;420
2024-09-17T06:41:28.039;599616679672145152;1183.2588;427
2024-09-17T06:41:28.046;599616679679820928;1190.9346;437
2024-09-17T06:41:28.054;599616679687496704;1198.6104;430
2024-09-17T06:41:28.062;599616679695172480;1206.2861;418
2024-09-17T06:41:28.069;599616679702848256;1213.9619;413
2024-09-17T06:41:28.077;599616679710524032;1221.6376;386
2024-09-17T06:41:28.085;599616679718199808;1229.3134;357
2024-09-17T06:41:28.092;599616679725875584;1236.9891;335
2024-09-17T06:41:28.100;599616679733551360;1244.6649;282
2024-09-17T06:41:28.108;599616679741227136;1252.3407;232
2024-09-17T06:41:28.116;599616679748902784;1260.0164;222
2024-09-17T06:41:28.123;599616679756578560;1267.6921;215
2024-09-17T06:41:28.131;599616679764254336;1275.3679;181
2024-09-17T06:41:28.139;599616679771930112;1283.0437;161
2024-09-17T06:41:28.146;599616679779605888;1290.7195;166
2024-09-17T06:41:28.154;599616679787281664;1298.3953;164
2024-09-17T06:41:28.162;599616679794957440;1306.071;183
2024-09-17T06:41:28.169;599616679802633216;1313.7468;203
2024-09-17T06:41:28.177;599616679810308992;1321.4226;183
2024-09-17T06:41:28.185;599616679817984768;1329.0984;178
2024-09-17T06:41:28.192;599616679825660544;1336.7742;181
2024-09-17T06:41:28.200;599616679833336192;1344.4498;161
2024-09-17T06:41:28.208;599616679841011968;1352.1256;166
2024-09-17T06:41:28.215;599616679848687744;1359.8014;186
2024-09-17T06:41:28.223;599616679856363520;1367.4772;188
2024-09-17T06:41:28.231;599616679864039296;1375.153;200
2024-09-17T06:41:28.238;599616679871715072;1382.8286;219
2024-09-17T06:41:28.246;599616679879390848;1390.5044;212
2024-09-17T06:41:28.254;599616679887066624;1398.1802;190
2024-09-17T06:41:28.261;599616679894742400;1405.856;190
2024-09-17T06:41:28.269;599616679902418176;1413.5317;205
2024-09-17T06:41:28.277;599616679910093952;1421.2075;210
2024-09-17T06:41:28.284;599616679917769600;1428.8832;188
2024-09-17T06:41:28.292;599616679925445376;1436.559;174
2024-09-17T06:41:28.300;599616679933121152;1444.2347;190
2024-09-17T06:41:28.307;599616679940796928;1451.9105;203
2024-09-17T06:41:28.315;599616679948472704;1459.5863;188
2024-09-17T06:41:28.323;599616679956148480;1467.2621;166
2024-09-17T06:41:28.330;599616679963824256;1474.9379;154
2024-09-17T06:41:28.338;599616679971500032;1482.6136;154
2024-09-17T06:41:28.346;599616679979175808;1490.2894;176
2024-09-17T06:41:28.353;599616679986851584;1497.9652;193
2024-09-17T06:41:28.361;599616679994527360;1505.641;178
2024-09-17T06:41:28.369;599616680002203136;1513.3168;171
2024-09-17T06:41:28.376;599616680009878784;1520.9924;176
2024-09-17T06:41:28.384;599616680017554560;1528.6682;181
2024-09-17T06:41:28.392;599616680025230336;1536.344;215
2024-09-17T06:41:28.400;599616680032906112;1544.0197;244
2024-09-17T06:41:28.407;599616680040581888;1551.6954;219
2024-09-17T06:41:28.415;599616680048257664;1559.3712;205
2024-09-17T06:41:28.423;599616680055933440;1567.047;203
2024-09-17T06:41:28.430;599616680063609216;1574.7228;186
2024-09-17T06:41:28.438;599616680071284992;1582.3986;186
2024-09-17T06:41:28.446;599616680078960768;1590.0743;188
2024-09-17T06:41:28.453;599616680086636544;1597.7501;181
2024-09-17T06:41:28.461;599616680094312192;1605.4258;193
2024-09-17T06:41:28.469;599616680101987968;1613.1016;205
2024-09-17T06:41:28.476;599616680109663744;1620.7773;203
2024-09-17T06:41:28.484;599616680117339520;1628.4531;200
2024-09-17T06:41:28.492;599616680125015296;1636.1289;203
2024-09-17T06:41:28.499;599616680132691072;1643.8047;198
2024-09-17T06:41:28.507;599616680140366848;1651.4805;239
2024-09-17T06:41:28.515;599616680148042624;1659.1562;439
2024-09-17T06:41:28.522;599616680155718400;1666.832;899
2024-09-17T06:41:28.530;599616680163394147;1674.5078;1457
2024-09-17T06:41:28.538;599616680171069696;1682.1833;1331
2024-09-17T06:41:28.545;599616680178745216;1689.8588;222
2024-09-17T06:41:28.553;599616680186420608;1697.5342;-447
2024-09-17T06:41:28.561;599616680194096128;1705.2097;14
2024-09-17T06:41:28.568;599616680201771648;1712.8853;280
2024-09-17T06:41:28.576;599616680209447168;1720.5608;38
2024-09-17T06:41:28.584;599616680217122560;1728.2362;72
2024-09-17T06:41:28.591;599616680224798080;1735.9116;203
2024-09-17T06:41:28.599;599616680232473600;1743.5872;123
2024-09-17T06:41:28.607;599616680240149120;1751.2627;91
2024-09-17T06:41:28.614;599616680247824512;1758.9381;159
2024-09-17T06:41:28.622;599616680255500032;1766.6136;169
2024-09-17T06:41:28.630;599616680263175552;1774.2892;176
2024-09-17T06:41:28.637;599616680270851072;1781.9647;217
2024-09-17T06:41:28.645;599616680278526464;1789.64;217
2024-09-17T06:41:28.653;599616680286201984;1797.3156;212
2024-09-17T06:41:28.660;599616680293877504;1804.9911;244
2024-09-17T06:41:28.668;599616680301552896;1812.6665;248
2024-09-17T06:41:28.676;599616680309228416;1820.342;241
2024-09-17T06:41:28.684;599616680316903936;1828.0176;261
2024-09-17T06:41:28.691;599616680324579456;1835.6931;253
2024-09-17T06:41:28.699;599616680332254848;1843.3684;229
2024-09-17T06:41:28.707;599616680339930368;1851.044;244
2024-09-17T06:41:28.714;599616680347605888;1858.7195;256
2024-09-17T06:41:28.722;599616680355281408;1866.395;256
2024-09-17T06:41:28.730;599616680362956800;1874.0704;270
2024-09-17T06:41:28.737;599616680370632320;1881.746;285
2024-09-17T06:41:28.745;599616680378307840;1889.4214;299
2024-09-17T06:41:28.753;599616680385983360;1897.0969;331
2024-09-17T06:41:28.760;599616680393658752;1904.7723;352
2024-09-17T06:41:28.768;599616680401334272;1912.4479;350
2024-09-17T06:41:28.776;599616680409009792;1920.1234;350
2024-09-17T06:41:28.783;599616680416685312;1927.799;369
2024-09-17T06:41:28.791;599616680424360704;1935.4742;367
2024-09-17T06:41:28.799;599616680432036224;1943.1498;343
2024-09-17T06:41:28.806;599616680439711744;1950.8253;319
2024-09-17T06:41:28.814;599616680447387136;1958.5007;299
2024-09-17T06:41:28.822;599616680455062656;1966.1763;270
2024-09-17T06:41:28.829;599616680462738176;1973.8518;222
2024-09-17T06:41:28.837;599616680470413696;1981.5273;171
2024-09-17T06:41:28.845;599616680478089088;1989.2026;154
2024-09-17T06:41:28.852;599616680485764608;1996.8782;140
2024-09-17T06:41:28.860;599616680493440128;2004.5537;116
2024-09-17T06:41:28.868;599616680501115648;2012.2292;103
2024-09-17T06:41:28.875;599616680508791040;2019.9047;94
2024-09-17T06:41:28.883;599616680516466560;2027.5802;96
2024-09-17T06:41:28.891;599616680524142080;2035.2557;108
2024-09-17T06:41:28.898;599616680531817600;2042.9312;94
2024-09-17T06:41:28.906;599616680539492992;2050.6067;77
2024-09-17T06:41:28.914;599616680547168512;2058.2822;96
2024-09-17T06:41:28.921;599616680554844032;2065.9575;108
2024-09-17T06:41:28.929;599616680562519424;2073.633;101
2024-09-17T06:41:28.937;599616680570194944;2081.3086;103
2024-09-17T06:41:28.944;599616680577870464;2088.9841;116
2024-09-17T06:41:28.952;599616680585545984;2096.6597;123
2024-09-17T06:41:28.960;599616680593221376;2104.335;125
2024-09-17T06:41:28.968;599616680600896896;2112.0105;123
2024-09-17T06:41:28.975;599616680608572416;2119.686;116
2024-09-17T06:41:28.983;599616680616247936;2127.3616;106
2024-09-17T06:41:28.991;599616680623923328;2135.0369;101
2024-09-17T06:41:28.998;599616680631598848;2142.7124;94
2024-09-17T06:41:29.006;599616680639274368;2150.388;89
2024-09-17T06:41:29.014;599616680646949888;2158.0637;91
2024-09-17T06:41:29.021;599616680654625280;2165.739;91
2024-09-17T06:41:29.029;599616680662300800;2173.4143;94
2024-09-17T06:41:29.037;599616680669976320;2181.0898;101
2024-09-17T06:41:29.044;599616680677651712;2188.7651;103
2024-09-17T06:41:29.052;599616680685327232;2196.441;113
2024-09-17T06:41:29.060;599616680693002752;2204.1165;128
2024-09-17T06:41:29.067;599616680700678272;2211.792;135
2024-09-17T06:41:29.075;599616680708353664;2219.4673;132
2024-09-17T06:41:29.083;599616680716029184;2227.1426;123
2024-09-17T06:41:29.090;599616680723704628;2234.8184;137
2024-09-17T06:41:29.098;599616680731380224;2242.494;174
2024-09-17T06:41:29.106;599616680739055872;2250.1694;200
2024-09-17T06:41:29.113;599616680746731648;2257.8452;212
2024-09-17T06:41:29.121;599616680754407296;2265.521;219
2024-09-17T06:41:29.129;599616680762082944;2273.1965;210
2024-09-17T06:41:29.136;599616680769758720;2280.8726;178
2024-09-17T06:41:29.144;599616680777434368;2288.5479;176
2024-09-17T06:41:29.152;599616680785110144;2296.2236;203
2024-09-17T06:41:29.159;599616680792785792;2303.8994;207
2024-09-17T06:41:29.167;599616680800461440;2311.575;198
2024-09-17T06:41:29.175;599616680808137216;2319.251;200
2024-09-17T06:41:29.182;599616680815812864;2326.9263;200
2024-09-17T06:41:29.190;599616680823488512;2334.6023;205
2024-09-17T06:41:29.198;599616680831164288;2342.2778;217
2024-09-17T06:41:29.205;599616680838839936;2349.9536;224
2024-09-17T06:41:29.213;599616680846515712;2357.6294;227
2024-09-17T06:41:29.221;599616680854191360;2365.305;265
2024-09-17T06:41:29.228;599616680861867008;2372.9807;478
2024-09-17T06:41:29.236;599616680869542784;2380.6565;1036
2024-09-17T06:41:29.244;599616680877218432;2388.332;1706
2024-09-17T06:41:29.252;599616680884894080;2396.0076;1486
2024-09-17T06:41:29.259;599616680892569856;2403.6833;159
2024-09-17T06:41:29.267;599616680900245504;2411.3591;-531
2024-09-17T06:41:29.275;599616680907921152;2419.0347;7
2024-09-17T06:41:29.282;599616680915596928;2426.7104;244
2024-09-17T06:41:29.290;599616680923272576;2434.3862;4
2024-09-17T06:41:29.298;599616680930948352;2442.0618;87
2024-09-17T06:41:29.305;599616680938624000;2449.7378;205
2024-09-17T06:41:29.313;599616680946299648;2457.413;111
2024-09-17T06:41:29.321;599616680953975424;2465.089;113
2024-09-17T06:41:29.328;599616680961651072;2472.7646;193
2024-09-17T06:41:29.336;599616680969326720;2480.4404;193
2024-09-17T06:41:29.344;599616680977002496;2488.1162;188
2024-09-17T06:41:29.351;599616680984678144;2495.7915;217
2024-09-17T06:41:29.359;599616680992353792;2503.4675;222
2024-09-17T06:41:29.367;599616681000029568;2511.143;219
2024-09-17T06:41:29.374;599616681007705216;2518.8188;236
2024-09-17T06:41:29.382;599616681015380992;2526.4946;251
2024-09-17T06:41:29.390;599616681023056640;2534.1702;246
2024-09-17T06:41:29.397;599616681030732288;2541.846;232
2024-09-17T06:41:29.405;599616681038408064;2549.5217;236
2024-09-17T06:41:29.413;599616681046083712;2557.1973;227
2024-09-17T06:41:29.420;599616681053759360;2564.873;195
2024-09-17T06:41:29.428;599616681061435136;2572.5486;195
2024-09-17T06:41:29.436;599616681069110784;2580.2246;212
2024-09-17T06:41:29.443;599616681076786560;2587.9001;210
2024-09-17T06:41:29.451;599616681084462208;2595.576;217
2024-09-17T06:41:29.459;599616681092137856;2603.2515;229
2024-09-17T06:41:29.466;599616681099813632;2610.927;246
2024-09-17T06:41:29.474;599616681107489280;2618.603;280
2024-09-17T06:41:29.482;599616681115164928;2626.2783;299
2024-09-17T06:41:29.489;599616681122840704;2633.9543;297
2024-09-17T06:41:29.497;599616681130516352;2641.63;316
2024-09-17T06:41:29.505;599616681138192000;2649.3057;333
2024-09-17T06:41:29.512;599616681145867776;2656.9814;323
2024-09-17T06:41:29.520;599616681153543424;2664.657;311
2024-09-17T06:41:29.528;599616681161219200;2672.3328;306
2024-09-17T06:41:29.536;599616681168894848;2680.0085;270
2024-09-17T06:41:29.543;599616681176570496;2687.684;227
2024-09-17T06:41:29.551;599616681184246272;2695.36;212
2024-09-17T06:41:29.559;599616681191921920;2703.0354;195
2024-09-17T06:41:29.566;599616681199597568;2710.7112;164
2024-09-17T06:41:29.574;599616681207273344;2718.387;157
2024-09-17T06:41:29.582;599616681214948992;2726.0625;145
2024-09-17T06:41:29.589;599616681222624768;2733.7385;108
2024-09-17T06:41:29.597;599616681230300416;2741.4138;77
2024-09-17T06:41:29.605;599616681237976064;2749.0898;87
2024-09-17T06:41:29.612;599616681245651840;2756.7654;118
2024-09-17T06:41:29.620;599616681253327488;2764.4412;128
2024-09-17T06:41:29.628;599616681261003136;2772.1167;132
2024-09-17T06:41:29.635;599616681268678912;2779.7925;157
2024-09-17T06:41:29.643;599616681276354560;2787.4683;183
2024-09-17T06:41:29.651;599616681284030367;2795.144;205
2024-09-17T06:41:29.658;599616681291705984;2802.8196;222
2024-09-17T06:41:29.666;599616681299381632;2810.495;224
2024-09-17T06:41:29.674;599616681307057408;2818.171;224
2024-09-17T06:41:29.681;599616681314733056;2825.8467;229
2024-09-17T06:41:29.689;599616681322408704;2833.5222;232
2024-09-17T06:41:29.697;599616681330084480;2841.198;229
2024-09-17T06:41:29.704;599616681337760128;2848.8738;222
2024-09-17T06:41:29.712;599616681345435904;2856.5493;215
2024-09-17T06:41:29.720;599616681353111552;2864.2253;210
2024-09-17T06:41:29.727;599616681360787200;2871.9006;200
2024-09-17T06:41:29.735;599616681368462976;2879.5767;198
2024-09-17T06:41:29.743;599616681376138624;2887.2522;205
2024-09-17T06:41:29.750;599616681383814272;2894.928;212
2024-09-17T06:41:29.758;599616681391490048;2902.6038;210
2024-09-17T06:41:29.766;599616681399165696;2910.279;207
2024-09-17T06:41:29.773;599616681406841472;2917.955;217
2024-09-17T06:41:29.781;599616681414517120;2925.6306;224
2024-09-17T06:41:29.789;599616681422192768;2933.3064;219
2024-09-17T06:41:29.796;599616681429868544;2940.9822;227
2024-09-17T06:41:29.804;599616681437544192;2948.6577;256
2024-09-17T06:41:29.812;599616681445219840;2956.3335;282
2024-09-17T06:41:29.820;599616681452895616;2964.0093;287
2024-09-17T06:41:29.827;599616681460571264;2971.6848;277
2024-09-17T06:41:29.835;599616681468246912;2979.3606;258
2024-09-17T06:41:29.843;599616681475922688;2987.0361;224
2024-09-17T06:41:29.850;599616681483598336;2994.7122;210
2024-09-17T06:41:29.858;599616681491274112;3002.3877;219
2024-09-17T06:41:29.866;599616681498949760;3010.0635;219
2024-09-17T06:41:29.873;599616681506625408;3017.739;217
2024-09-17T06:41:29.881;599616681514301184;3025.4146;224
2024-09-17T06:41:29.889;599616681521976832;3033.0906;229
2024-09-17T06:41:29.896;599616681529652480;3040.7659;224
2024-09-17T06:41:29.904;599616681537328256;3048.442;229
2024-09-17T06:41:29.912;599616681545003904;3056.1174;234
2024-09-17T06:41:29.919;599616681552679552;3063.7932;234
2024-09-17T06:41:29.927;599616681560355328;3071.469;309
2024-09-17T06:41:29.935;599616681568030976;3079.1445;575
2024-09-17T06:41:29.942;599616681575706752;3086.8203;1116
2024-09-17T06:41:29.950;599616681583382400;3094.496;1643
2024-09-17T06:41:29.958;599616681591058048;3102.1716;1239
2024-09-17T06:41:29.965;599616681598733824;3109.8477;-19
2024-09-17T06:41:29.973;599616681606409472;3117.523;-449
2024-09-17T06:41:29.981;599616681614085120;3125.1987;113
2024-09-17T06:41:29.988;599616681621760896;3132.8745;246
2024-09-17T06:41:29.996;599616681629436544;3140.55;45
2024-09-17T06:41:30.004;599616681637112320;3148.226;152
2024-09-17T06:41:30.011;599616681644787968;3155.9014;222
2024-09-17T06:41:30.019;599616681652463616;3163.5774;130
2024-09-17T06:41:30.027;599616681660139392;3171.253;149
2024-09-17T06:41:30.034;599616681667815040;3178.9287;210
2024-09-17T06:41:30.042;599616681675490688;3186.6042;207
2024-09-17T06:41:30.050;599616681683166464;3194.28;215
2024-09-17T06:41:30.057;599616681690842112;3201.9558;244
2024-09-17T06:41:30.065;599616681698517760;3209.6313;251
2024-09-17T06:41:30.073;599616681706193536;3217.3071;261
2024-09-17T06:41:30.080;599616681713869184;3224.9827;287
2024-09-17T06:41:30.088;599616681721544960;3232.6584;302
2024-09-17T06:41:30.096;599616681729220608;3240.3342;304
2024-09-17T06:41:30.104;599616681736896256;3248.0098;326
2024-09-17T06:41:30.111;599616681744572032;3255.6855;343
2024-09-17T06:41:30.119;599616681752247680;3263.3613;328
2024-09-17T06:41:30.127;599616681759923328;3271.0369;323
2024-09-17T06:41:30.134;599616681767599104;3278.713;338
2024-09-17T06:41:30.142;599616681775274752;3286.3882;335
2024-09-17T06:41:30.150;599616681782950528;3294.0642;335
2024-09-17T06:41:30.157;599616681790626176;3301.7397;357
2024-09-17T06:41:30.165;599616681798301824;3309.4155;374
2024-09-17T06:41:30.173;599616681805977600;3317.0913;377
2024-09-17T06:41:30.180;599616681813653248;3324.7666;396
2024-09-17T06:41:30.188;599616681821328896;3332.4426;413
2024-09-17T06:41:30.196;599616681829004672;3340.1182;401
2024-09-17T06:41:30.203;599616681836680320;3347.794;384
2024-09-17T06:41:30.211;599616681844356106;3355.4697;379
2024-09-17T06:41:30.219;599616681852031744;3363.1453;374
2024-09-17T06:41:30.226;599616681859707392;3370.821;348
2024-09-17T06:41:30.234;599616681867383168;3378.4968;306
2024-09-17T06:41:30.242;599616681875058816;3386.1724;261
2024-09-17T06:41:30.249;599616681882734464;3393.8481;215
2024-09-17T06:41:30.257;599616681890410240;3401.5237;174
2024-09-17T06:41:30.265;599616681898085888;3409.1997;145
2024-09-17T06:41:30.272;599616681905761664;3416.8752;132
2024-09-17T06:41:30.280;599616681913437312;3424.551;120
2024-09-17T06:41:30.288;599616681921112960;3432.2266;113
2024-09-17T06:41:30.295;599616681928788736;3439.902;111
2024-09-17T06:41:30.303;599616681936464384;3447.5781;111
2024-09-17T06:41:30.311;599616681944140032;3455.2534;125
2024-09-17T06:41:30.318;599616681951815808;3462.9294;142
2024-09-17T06:41:30.326;599616681959491456;3470.605;140
2024-09-17T06:41:30.334;599616681967167232;3478.2808;142
2024-09-17T06:41:30.341;599616681974842880;3485.9565;159
2024-09-17T06:41:30.349;599616681982518528;3493.632;159
2024-09-17T06:41:30.357;599616681990194304;3501.3079;157
2024-09-17T06:41:30.364;599616681997869952;3508.9836;166
2024-09-17T06:41:30.372;599616682005545600;3516.6592;159
2024-09-17T06:41:30.380;599616682013221376;3524.3352;145
2024-09-17T06:41:30.388;599616682020897024;3532.0105;142
2024-09-17T06:41:30.395;599616682028572672;3539.6863;137
2024-09-17T06:41:30.403;599616682036248448;3547.362;128
2024-09-17T06:41:30.411;599616682043924096;3555.0376;128
2024-09-17T06:41:30.418;599616682051599872;3562.7136;132
2024-09-17T06:41:30.426;599616682059275520;3570.389;135
2024-09-17T06:41:30.434;599616682066951168;3578.065;128
2024-09-17T06:41:30.441;599616682074626944;3585.7405;118
2024-09-17T06:41:30.449;599616682082302592;3593.4163;128
2024-09-17T06:41:30.457;599616682089978240;3601.0918;142
2024-09-17T06:41:30.464;599616682097654016;3608.7676;142
2024-09-17T06:41:30.472;599616682105329664;3616.4434;142
2024-09-17T06:41:30.480;599616682113005312;3624.119;149
2024-09-17T06:41:30.487;599616682120681088;3631.7947;161
2024-09-17T06:41:30.495;599616682128356736;3639.4702;181
2024-09-17T06:41:30.503;599616682136032512;3647.146;195
2024-09-17T06:41:30.510;599616682143708160;3654.8218;205
2024-09-17T06:41:30.518;599616682151383808;3662.4973;210
2024-09-17T06:41:30.526;599616682159059584;3670.173;190
2024-09-17T06:41:30.533;599616682166735232;3677.8489;157
2024-09-17T06:41:30.541;599616682174410880;3685.5244;149
2024-09-17T06:41:30.549;599616682182086656;3693.2004;157
2024-09-17T06:41:30.556;599616682189762304;3700.8757;147
2024-09-17T06:41:30.564;599616682197438080;3708.5518;145
2024-09-17T06:41:30.572;599616682205113728;3716.2273;152
2024-09-17T06:41:30.579;599616682212789376;3723.903;152
2024-09-17T06:41:30.587;599616682220465152;3731.5789;147
2024-09-17T06:41:30.595;599616682228140800;3739.2542;152
2024-09-17T06:41:30.602;599616682235816448;3746.9302;161
2024-09-17T06:41:30.610;599616682243492224;3754.6057;166
2024-09-17T06:41:30.618;599616682251167872;3762.2815;215
2024-09-17T06:41:30.625;599616682258843520;3769.957;425
2024-09-17T06:41:30.633;599616682266519296;3777.6328;913
2024-09-17T06:41:30.641;599616682274194944;3785.3086;1411
2024-09-17T06:41:30.648;599616682281870720;3792.9844;1085
2024-09-17T06:41:30.656;599616682289546368;3800.66;-41
2024-09-17T06:41:30.664;599616682297222016;3808.3357;-437
2024-09-17T06:41:30.672;599616682304897792;3816.0112;77
2024-09-17T06:41:30.679;599616682312573440;3823.6873;186
2024-09-17T06:41:30.687;599616682320249088;3831.3625;-12
2024-09-17T06:41:30.695;599616682327924864;3839.0386;96
2024-09-17T06:41:30.702;599616682335600512;3846.714;164
2024-09-17T06:41:30.710;599616682343276288;3854.3896;70
2024-09-17T06:41:30.718;599616682350951936;3862.0657;84
2024-09-17T06:41:30.725;599616682358627584;3869.741;147
2024-09-17T06:41:30.733;599616682366303360;3877.417;147
2024-09-17T06:41:30.741;599616682373979008;3885.0925;149
2024-09-17T06:41:30.748;599616682381654656;3892.7683;169
2024-09-17T06:41:30.756;599616682389330432;3900.444;174
2024-09-17T06:41:30.764;599616682397006080;3908.1196;171
2024-09-17T06:41:30.771;599616682404681845;3915.7954;178
2024-09-17T06:41:30.779;599616682412357120;3923.471;186
2024-09-17T06:41:30.787;599616682420032384;3931.146;198
2024-09-17T06:41:30.794;599616682427707648;3938.821;212
2024-09-17T06:41:30.802;599616682435382912;3946.4966;224
2024-09-17T06:41:30.810;599616682443058176;3954.1719;232
2024-09-17T06:41:30.817;599616682450733568;3961.8474;234
2024-09-17T06:41:30.825;599616682458408832;3969.5225;244
2024-09-17T06:41:30.833;599616682466084096;3977.1975;265
2024-09-17T06:41:30.840;599616682473759360;3984.873;273
2024-09-17T06:41:30.848;599616682481434624;3992.5483;282
2024-09-17T06:41:30.856;599616682489109888;4000.2234;309
2024-09-17T06:41:30.863;599616682496785152;4007.8987;319
2024-09-17T06:41:30.871;599616682504460416;4015.574;323
2024-09-17T06:41:30.879;599616682512135680;4023.2495;335
2024-09-17T06:41:30.886;599616682519810944;4030.9246;338
2024-09-17T06:41:30.894;599616682527486336;4038.5999;333
2024-09-17T06:41:30.902;599616682535161600;4046.2751;328
2024-09-17T06:41:30.909;599616682542836864;4053.9504;314
2024-09-17T06:41:30.917;599616682550512128;4061.626;287
2024-09-17T06:41:30.925;599616682558187392;4069.301;248
2024-09-17T06:41:30.932;599616682565862656;4076.976;210
2024-09-17T06:41:30.940;599616682573537920;4084.6516;181
2024-09-17T06:41:30.948;599616682581213184;4092.327;147
2024-09-17T06:41:30.956;599616682588888448;4100.002;116
2024-09-17T06:41:30.963;599616682596563712;4107.6772;87
2024-09-17T06:41:30.971;599616682604239104;4115.3525;62
2024-09-17T06:41:30.979;599616682611914368;4123.028;70
2024-09-17T06:41:30.986;599616682619589632;4130.703;82
2024-09-17T06:41:30.994;599616682627264896;4138.3784;70
2024-09-17T06:41:31.002;599616682634940160;4146.0537;65
2024-09-17T06:41:31.009;599616682642615424;4153.729;77
2024-09-17T06:41:31.017;599616682650290688;4161.4043;77
2024-09-17T06:41:31.025;599616682657965952;4169.0796;74
2024-09-17T06:41:31.032;599616682665641216;4176.755;94
2024-09-17T06:41:31.040;599616682673316480;4184.43;106
2024-09-17T06:41:31.048;599616682680991872;4192.1055;106
2024-09-17T06:41:31.055;599616682688667136;4199.781;103
2024-09-17T06:41:31.063;599616682696342400;4207.456;108
2024-09-17T06:41:31.071;599616682704017664;4215.1313;111
2024-09-17T06:41:31.078;599616682711692928;4222.8066;103
2024-09-17T06:41:31.086;599616682719368192;4230.482;99
2024-09-17T06:41:31.094;599616682727043456;4238.157;101
2024-09-17T06:41:31.101;599616682734718720;4245.832;103
2024-09-17T06:41:31.109;599616682742393984;4253.508;111
2024-09-17T06:41:31.117;599616682750069248;4261.183;103
2024-09-17T06:41:31.124;599616682757744640;4268.8584;91
2024-09-17T06:41:31.132;599616682765419904;4276.5337;94
2024-09-17T06:41:31.140;599616682773095168;4284.2085;103
2024-09-17T06:41:31.147;599616682780770432;4291.884;101
2024-09-17T06:41:31.155;599616682788445696;4299.5596;106
2024-09-17T06:41:31.163;599616682796120960;4307.235;120
2024-09-17T06:41:31.170;599616682803796224;4314.9097;135
2024-09-17T06:41:31.178;599616682811471488;4322.585;147
2024-09-17T06:41:31.186;599616682819146752;4330.2603;161
2024-09-17T06:41:31.193;599616682826822016;4337.9355;166
2024-09-17T06:41:31.201;599616682834497408;4345.6113;132
2024-09-17T06:41:31.209;599616682842172672;4353.286;87
2024-09-17T06:41:31.216;599616682849847936;4360.9614;84
2024-09-17T06:41:31.224;599616682857523200;4368.6367;103
2024-09-17T06:41:31.232;599616682865198464;4376.312;101
2024-09-17T06:41:31.239;599616682872873728;4383.9873;96
2024-09-17T06:41:31.247;599616682880548992;4391.6626;101
2024-09-17T06:41:31.255;599616682888224256;4399.338;103
2024-09-17T06:41:31.263;599616682895899520;4407.013;103
2024-09-17T06:41:31.270;599616682903574784;4414.6885;111
2024-09-17T06:41:31.278;599616682911250176;4422.364;118
2024-09-17T06:41:31.286;599616682918925440;4430.039;125
2024-09-17T06:41:31.293;599616682926600704;4437.7144;203
2024-09-17T06:41:31.301;599616682934275968;4445.3896;466
2024-09-17T06:41:31.309;599616682941951232;4453.065;978
2024-09-17T06:41:31.316;599616682949626496;4460.74;1421
2024-09-17T06:41:31.324;599616682957301760;4468.4155;925
2024-09-17T06:41:31.332;599616682964977066;4476.091;-304
2024-09-17T06:41:31.339;599616682972652672;4483.766;-609
2024-09-17T06:41:31.347;599616682980328320;4491.4424;26
2024-09-17T06:41:31.355;599616682988004096;4499.1177;147
2024-09-17T06:41:31.362;599616682995679744;4506.7935;-58
2024-09-17T06:41:31.370;599616683003355392;4514.4688;58
2024-09-17T06:41:31.378;599616683011031168;4522.1445;125
2024-09-17T06:41:31.385;599616683018706816;4529.821;43
2024-09-17T06:41:31.393;599616683026382592;4537.496;67
2024-09-17T06:41:31.401;599616683034058240;4545.172;113
2024-09-17T06:41:31.408;599616683041733888;4552.847;106
2024-09-17T06:41:31.416;599616683049409664;4560.5234;118
2024-09-17T06:41:31.424;599616683057085312;4568.199;142
2024-09-17T06:41:31.431;599616683064760960;4575.8745;145
2024-09-17T06:41:31.439;599616683072436736;4583.5503;149
2024-09-17T06:41:31.447;599616683080112384;4591.226;152
2024-09-17T06:41:31.454;599616683087788160;4598.902;159
2024-09-17T06:41:31.462;599616683095463808;4606.5776;174
2024-09-17T06:41:31.470;599616683103139456;4614.253;183
2024-09-17T06:41:31.477;599616683110815232;4621.929;200
2024-09-17T06:41:31.485;599616683118490880;4629.6045;212
2024-09-17T06:41:31.493;599616683126166528;4637.2803;215
2024-09-17T06:41:31.500;599616683133842304;4644.956;227
2024-09-17T06:41:31.508;599616683141517952;4652.6313;241
2024-09-17T06:41:31.516;599616683149193600;4660.307;248
2024-09-17T06:41:31.523;599616683156869376;4667.983;275
2024-09-17T06:41:31.531;599616683164545024;4675.6587;297
2024-09-17T06:41:31.539;599616683172220800;4683.3345;287
2024-09-17T06:41:31.547;599616683179896448;4691.0103;292
2024-09-17T06:41:31.554;599616683187572096;4698.6855;309
2024-09-17T06:41:31.562;599616683195247872;4706.3613;302
2024-09-17T06:41:31.570;599616683202923520;4714.037;285
2024-09-17T06:41:31.577;599616683210599168;4721.7124;285
2024-09-17T06:41:31.585;599616683218274944;4729.3887;277
2024-09-17T06:41:31.593;599616683225950592;4737.064;248
2024-09-17T06:41:31.600;599616683233626240;4744.7397;210
2024-09-17T06:41:31.608;599616683241302016;4752.4155;166
2024-09-17T06:41:31.616;599616683248977664;4760.0913;132
2024-09-17T06:41:31.623;599616683256653440;4767.767;108
2024-09-17T06:41:31.631;599616683264329088;4775.4424;77
2024-09-17T06:41:31.639;599616683272004736;4783.118;50
2024-09-17T06:41:31.646;599616683279680512;4790.7944;36
2024-09-17T06:41:31.654;599616683287356160;4798.4697;33
2024-09-17T06:41:31.662;599616683295031808;4806.1455;41
2024-09-17T06:41:31.669;599616683302707584;4813.821;45
2024-09-17T06:41:31.677;599616683310383232;4821.497;41
2024-09-17T06:41:31.685;599616683318059008;4829.173;45
2024-09-17T06:41:31.692;599616683325734656;4836.848;60
2024-09-17T06:41:31.700;599616683333410304;4844.524;67
2024-09-17T06:41:31.708;599616683341086080;4852.199;60
2024-09-17T06:41:31.715;599616683348761728;4859.8755;58
2024-09-17T06:41:31.723;599616683356437376;4867.5513;70
2024-09-17T06:41:31.731;599616683364113152;4875.2266;79
2024-09-17T06:41:31.738;599616683371788800;4882.9023;72
2024-09-17T06:41:31.746;599616683379464448;4890.578;70
2024-09-17T06:41:31.754;599616683387140224;4898.254;82
2024-09-17T06:41:31.761;599616683394815872;4905.9297;89
2024-09-17T06:41:31.769;599616683402491648;4913.605;87
2024-09-17T06:41:31.777;599616683410167296;4921.2812;77
2024-09-17T06:41:31.784;599616683417842944;4928.9565;74
2024-09-17T06:41:31.792;599616683425518720;4936.6323;79
2024-09-17T06:41:31.800;599616683433194368;4944.308;87
2024-09-17T06:41:31.807;599616683440870016;4951.9834;91
2024-09-17T06:41:31.815;599616683448545792;4959.6597;103
2024-09-17T06:41:31.823;599616683456221440;4967.335;123
2024-09-17T06:41:31.831;599616683463897216;4975.0107;132
2024-09-17T06:41:31.838;599616683471572864;4982.6865;135
2024-09-17T06:41:31.846;599616683479248512;4990.3623;145
2024-09-17T06:41:31.854;599616683486924288;4998.038;142
2024-09-17T06:41:31.861;599616683494599936;5005.7134;118
2024-09-17T06:41:31.869;599616683502275584;5013.389;77
2024-09-17T06:41:31.877;599616683509951360;5021.0654;72
2024-09-17T06:41:31.884;599616683517627008;5028.7407;94
2024-09-17T06:41:31.892;599616683525302805;5036.4165;89
2024-09-17T06:41:31.900;599616683532978432;5044.092;74
2024-09-17T06:41:31.907;599616683540654080;5051.7676;82
2024-09-17T06:41:31.915;599616683548329856;5059.444;99
2024-09-17T06:41:31.923;599616683556005504;5067.119;101
2024-09-17T06:41:31.930;599616683563681152;5074.7944;103
2024-09-17T06:41:31.938;599616683571356928;5082.47;108
2024-09-17T06:41:31.946;599616683579032576;5090.1465;118
2024-09-17T06:41:31.953;599616683586708352;5097.8223;198
2024-09-17T06:41:31.961;599616683594384000;5105.4976;471
2024-09-17T06:41:31.969;599616683602059648;5113.173;1015
2024-09-17T06:41:31.976;599616683609735424;5120.849;1442
2024-09-17T06:41:31.984;599616683617411072;5128.525;843
2024-09-17T06:41:31.992;599616683625086720;5136.2;-451
2024-09-17T06:41:31.999;599616683632762496;5143.876;-703
2024-09-17T06:41:32.007;599616683640438144;5151.5513;9
2024-09-17T06:41:32.015;599616683648113920;5159.2275;159
2024-09-17T06:41:32.022;599616683655789568;5166.9033;-60
2024-09-17T06:41:32.030;599616683663465216;5174.5786;53
2024-09-17T06:41:32.038;599616683671140992;5182.2544;135
2024-09-17T06:41:32.045;599616683678816640;5189.93;41
2024-09-17T06:41:32.053;599616683686492288;5197.606;48
2024-09-17T06:41:32.061;599616683694168064;5205.2817;108
2024-09-17T06:41:32.068;599616683701843712;5212.957;103
2024-09-17T06:41:32.076;599616683709519360;5220.6333;106
2024-09-17T06:41:32.084;599616683717195136;5228.3086;140
2024-09-17T06:41:32.091;599616683724870784;5235.9844;145
2024-09-17T06:41:32.099;599616683732546560;5243.66;137
2024-09-17T06:41:32.107;599616683740222208;5251.3354;152
2024-09-17T06:41:32.115;599616683747897856;5259.0117;166
2024-09-17T06:41:32.122;599616683755573632;5266.687;174
2024-09-17T06:41:32.130;599616683763249280;5274.363;186
2024-09-17T06:41:32.138;599616683770924928;5282.0386;195
2024-09-17T06:41:32.145;599616683778600704;5289.7144;200
2024-09-17T06:41:32.153;599616683786276352;5297.39;215
2024-09-17T06:41:32.161;599616683793952000;5305.0654;232
2024-09-17T06:41:32.168;599616683801627776;5312.741;241
2024-09-17T06:41:32.176;599616683809303424;5320.4175;251
2024-09-17T06:41:32.184;599616683816979200;5328.093;261
2024-09-17T06:41:32.191;599616683824654848;5335.7686;277
2024-09-17T06:41:32.199;599616683832330496;5343.444;287
2024-09-17T06:41:32.207;599616683840006272;5351.1196;285
2024-09-17T06:41:32.214;599616683847681920;5358.796;290
2024-09-17T06:41:32.222;599616683855357568;5366.471;292
2024-09-17T06:41:32.230;599616683863033344;5374.147;275
2024-09-17T06:41:32.237;599616683870708992;5381.8223;253
2024-09-17T06:41:32.245;599616683878384768;5389.4985;241
2024-09-17T06:41:32.253;599616683886060416;5397.1743;224
2024-09-17T06:41:32.260;599616683893736064;5404.8496;190
2024-09-17T06:41:32.268;599616683901411840;5412.5254;147
2024-09-17T06:41:32.276;599616683909087488;5420.201;106
2024-09-17T06:41:32.283;599616683916763136;5427.877;74
2024-09-17T06:41:32.291;599616683924438912;5435.5527;53
2024-09-17T06:41:32.299;599616683932114560;5443.228;31
2024-09-17T06:41:32.306;599616683939790208;5450.9033;26
2024-09-17T06:41:32.314;599616683947465984;5458.5796;33
2024-09-17T06:41:32.322;599616683955141632;5466.2554;33
2024-09-17T06:41:32.329;599616683962817408;5473.931;29
2024-09-17T06:41:32.337;599616683970493056;5481.6064;41
2024-09-17T06:41:32.345;599616683978168704;5489.282;50
2024-09-17T06:41:32.352;599616683985844480;5496.958;60
2024-09-17T06:41:32.360;599616683993520128;5504.634;70
2024-09-17T06:41:32.368;599616684001195776;5512.309;62
2024-09-17T06:41:32.375;599616684008871552;5519.9854;60
2024-09-17T06:41:32.383;599616684016547200;5527.6606;72
2024-09-17T06:41:32.391;599616684024222976;5535.3364;72
2024-09-17T06:41:32.399;599616684031898624;5543.012;70
2024-09-17T06:41:32.406;599616684039574272;5550.6875;72
2024-09-17T06:41:32.414;599616684047250048;5558.364;74
2024-09-17T06:41:32.422;599616684054925696;5566.039;79
2024-09-17T06:41:32.429;599616684062601344;5573.715;91
2024-09-17T06:41:32.437;599616684070277120;5581.3906;94
2024-09-17T06:41:32.445;599616684077952768;5589.0664;89
2024-09-17T06:41:32.452;599616684085628544;5596.742;87
2024-09-17T06:41:32.460;599616684093304576;5604.418;89
2024-09-17T06:41:32.468;599616684100980608;5612.094;101
2024-09-17T06:41:32.475;599616684108656640;5619.7705;125
2024-09-17T06:41:32.483;599616684116332672;5627.4463;135
2024-09-17T06:41:32.491;599616684124008704;5635.122;142
2024-09-17T06:41:32.498;599616684131684736;5642.798;149
2024-09-17T06:41:32.506;599616684139360896;5650.4746;140
2024-09-17T06:41:32.514;599616684147036928;5658.1504;106
2024-09-17T06:41:32.521;599616684154712960;5665.8267;82
2024-09-17T06:41:32.529;599616684162388992;5673.503;87
2024-09-17T06:41:32.537;599616684170065024;5681.1787;91
2024-09-17T06:41:32.544;599616684177741056;5688.8545;94
2024-09-17T06:41:32.552;599616684185417088;5696.5303;101
2024-09-17T06:41:32.560;599616684193093120;5704.207;106
2024-09-17T06:41:32.567;599616684200769152;5711.883;108
2024-09-17T06:41:32.575;599616684208445184;5719.5586;120
2024-09-17T06:41:32.583;599616684216121216;5727.235;130
2024-09-17T06:41:32.590;599616684223797376;5734.911;137
2024-09-17T06:41:32.598;599616684231473408;5742.587;181
2024-09-17T06:41:32.606;599616684239149440;5750.2627;350
2024-09-17T06:41:32.613;599616684246825472;5757.939;763
2024-09-17T06:41:32.621;599616684254501504;5765.615;1302
2024-09-17T06:41:32.629;599616684262177536;5773.291;1237
2024-09-17T06:41:32.636;599616684269853568;5780.9673;174
2024-09-17T06:41:32.644;599616684277529600;5788.6436;-582
2024-09-17T06:41:32.652;599616684285205632;5796.3193;-130
2024-09-17T06:41:32.659;599616684292881664;5803.995;275
2024-09-17T06:41:32.667;599616684300557696;5811.671;60
2024-09-17T06:41:32.675;599616684308233728;5819.3477;50
2024-09-17T06:41:32.683;599616684315909888;5827.0234;207
2024-09-17T06:41:32.690;599616684323585920;5834.6997;145
2024-09-17T06:41:32.698;599616684331261952;5842.3755;96
2024-09-17T06:41:32.706;599616684338937984;5850.052;161
2024-09-17T06:41:32.713;599616684346614016;5857.7275;178
2024-09-17T06:41:32.721;599616684354290048;5865.4033;174
2024-09-17T06:41:32.729;599616684361966080;5873.0796;200
2024-09-17T06:41:32.736;599616684369642112;5880.756;217
2024-09-17T06:41:32.744;599616684377318144;5888.4316;222
2024-09-17T06:41:32.752;599616684384994176;5896.108;239
2024-09-17T06:41:32.759;599616684392670208;5903.784;256
2024-09-17T06:41:32.767;599616684400346368;5911.46;263
2024-09-17T06:41:32.775;599616684408022400;5919.1357;280
2024-09-17T06:41:32.782;599616684415698432;5926.812;299
2024-09-17T06:41:32.790;599616684423374464;5934.4883;304
2024-09-17T06:41:32.798;599616684431050496;5942.164;304
2024-09-17T06:41:32.805;599616684438726528;5949.8403;314
2024-09-17T06:41:32.813;599616684446402560;5957.516;321
2024-09-17T06:41:32.821;599616684454078592;5965.1924;328
2024-09-17T06:41:32.828;599616684461754624;5972.868;343
2024-09-17T06:41:32.836;599616684469430656;5980.544;348
2024-09-17T06:41:32.844;599616684477106688;5988.22;345
2024-09-17T06:41:32.851;599616684484782848;5995.8965;345
2024-09-17T06:41:32.859;599616684492458880;6003.5728;338
2024-09-17T06:41:32.867;599616684500134912;6011.2485;323
2024-09-17T06:41:32.874;599616684507810944;6018.9243;309
2024-09-17T06:41:32.882;599616684515486976;6026.6006;304
2024-09-17T06:41:32.890;599616684523163008;6034.2764;297
2024-09-17T06:41:32.897;599616684530839040;6041.9526;273
2024-09-17T06:41:32.905;599616684538515072;6049.629;244
2024-09-17T06:41:32.913;599616684546191104;6057.3047;207
2024-09-17T06:41:32.920;599616684553867136;6064.981;171
2024-09-17T06:41:32.928;599616684561543168;6072.6567;142
2024-09-17T06:41:32.936;599616684569219328;6080.333;123
2024-09-17T06:41:32.944;599616684576895360;6088.009;108
2024-09-17T06:41:32.951;599616684584571392;6095.685;101
2024-09-17T06:41:32.959;599616684592247424;6103.361;101
2024-09-17T06:41:32.967;599616684599923456;6111.037;106
2024-09-17T06:41:32.974;599616684607599488;6118.7134;108
2024-09-17T06:41:32.982;599616684615275520;6126.389;108
2024-09-17T06:41:32.990;599616684622951552;6134.065;111
2024-09-17T06:41:32.997;599616684630627584;6141.741;116
2024-09-17T06:41:33.005;599616684638303616;6149.417;120
2024-09-17T06:41:33.013;599616684645979713;6157.0933;120
2024-09-17T06:41:33.020;599616684653655552;6164.769;120
2024-09-17T06:41:33.028;599616684661331328;6172.445;130
2024-09-17T06:41:33.036;599616684669007104;6180.1206;137
2024-09-17T06:41:33.043;599616684676682880;6187.7964;132
2024-09-17T06:41:33.051;599616684684358656;6195.472;130
2024-09-17T06:41:33.059;599616684692034432;6203.1484;135
2024-09-17T06:41:33.066;599616684699710080;6210.8237;135
2024-09-17T06:41:33.074;599616684707385856;6218.4995;132
2024-09-17T06:41:33.082;599616684715061632;6226.175;135
2024-09-17T06:41:33.089;599616684722737408;6233.851;137
2024-09-17T06:41:33.097;599616684730413184;6241.527;140
2024-09-17T06:41:33.105;599616684738088960;6249.2026;147
2024-09-17T06:41:33.112;599616684745764736;6256.8784;157
2024-09-17T06:41:33.120;599616684753440512;6264.554;171
2024-09-17T06:41:33.128;599616684761116288;6272.23;183
2024-09-17T06:41:33.135;599616684768792064;6279.906;183
2024-09-17T06:41:33.143;599616684776467840;6287.581;176
2024-09-17T06:41:33.151;599616684784143616;6295.2573;157
2024-09-17T06:41:33.158;599616684791819264;6302.933;118
2024-09-17T06:41:33.166;599616684799495040;6310.609;99
2024-09-17T06:41:33.174;599616684807170816;6318.284;108
2024-09-17T06:41:33.181;599616684814846592;6325.96;99
2024-09-17T06:41:33.189;599616684822522368;6333.636;84
2024-09-17T06:41:33.197;599616684830198144;6341.3115;91
2024-09-17T06:41:33.204;599616684837873920;6348.9873;91
2024-09-17T06:41:33.212;599616684845549696;6356.663;84
2024-09-17T06:41:33.220;599616684853225472;6364.3394;89
2024-09-17T06:41:33.228;599616684860901248;6372.015;99
2024-09-17T06:41:33.235;599616684868577024;6379.6904;111
2024-09-17T06:41:33.243;599616684876252672;6387.366;178
2024-09-17T06:41:33.251;599616684883928448;6395.042;406
2024-09-17T06:41:33.258;599616684891604224;6402.718;836
2024-09-17T06:41:33.266;599616684899280000;6410.3936;1128
2024-09-17T06:41:33.274;599616684906955776;6418.0693;659
2024-09-17T06:41:33.281;599616684914631552;6425.7456;-215
2024-09-17T06:41:33.289;599616684922307328;6433.421;-314
2024-09-17T06:41:33.297;599616684929983104;6441.0967;94
2024-09-17T06:41:33.304;599616684937658880;6448.7725;45
2024-09-17T06:41:33.312;599616684945334656;6456.448;-96
2024-09-17T06:41:33.320;599616684953010432;6464.124;29
2024-09-17T06:41:33.327;599616684960686080;6471.8;50
2024-09-17T06:41:33.335;599616684968361856;6479.4756;-24
2024-09-17T06:41:33.343;599616684976037632;6487.151;9
2024-09-17T06:41:33.350;599616684983713408;6494.827;45
2024-09-17T06:41:33.358;599616684991389184;6502.503;31
2024-09-17T06:41:33.366;599616684999064960;6510.178;41
2024-09-17T06:41:33.373;599616685006740736;6517.854;67
2024-09-17T06:41:33.381;599616685014416512;6525.5303;72
2024-09-17T06:41:33.389;599616685022092288;6533.206;82
2024-09-17T06:41:33.396;599616685029768064;6540.882;101
2024-09-17T06:41:33.404;599616685037443840;6548.557;111
2024-09-17T06:41:33.412;599616685045119616;6556.2334;118
2024-09-17T06:41:33.419;599616685052795264;6563.9087;132
2024-09-17T06:41:33.427;599616685060471040;6571.5845;145
2024-09-17T06:41:33.435;599616685068146816;6579.2603;154
2024-09-17T06:41:33.442;599616685075822592;6586.9365;164
2024-09-17T06:41:33.450;599616685083498368;6594.6123;174
2024-09-17T06:41:33.458;599616685091174144;6602.2876;176
2024-09-17T06:41:33.465;599616685098849920;6609.9634;176
2024-09-17T06:41:33.473;599616685106525696;6617.6396;183
2024-09-17T06:41:33.481;599616685114201472;6625.315;198
2024-09-17T06:41:33.488;599616685121877248;6632.9907;205
2024-09-17T06:41:33.496;599616685129553024;6640.6665;207
2024-09-17T06:41:33.504;599616685137228672;6648.3423;212
2024-09-17T06:41:33.512;599616685144904448;6656.018;210
2024-09-17T06:41:33.519;599616685152580224;6663.694;200
2024-09-17T06:41:33.527;599616685160256000;6671.3696;190
2024-09-17T06:41:33.535;599616685167931776;6679.045;181
2024-09-17T06:41:33.542;599616685175607552;6686.721;164
2024-09-17T06:41:33.550;599616685183283328;6694.397;135
2024-09-17T06:41:33.558;599616685190959104;6702.0728;106
2024-09-17T06:41:33.565;599616685198634880;6709.7485;82
2024-09-17T06:41:33.573;599616685206310538;6717.4243;65
2024-09-17T06:41:33.581;599616685213985792;6725.0996;53
2024-09-17T06:41:33.588;599616685221661056;6732.7744;48
2024-09-17T06:41:33.596;599616685229336320;6740.4497;48
2024-09-17T06:41:33.604;599616685237011584;6748.125;50
2024-09-17T06:41:33.611;599616685244686848;6755.801;53
2024-09-17T06:41:33.619;599616685252362240;6763.476;50
2024-09-17T06:41:33.627;599616685260037504;6771.151;38
2024-09-17T06:41:33.634;599616685267712768;6778.826;33
2024-09-17T06:41:33.642;599616685275388032;6786.5015;36
2024-09-17T06:41:33.650;599616685283063296;6794.1772;36
2024-09-17T06:41:33.657;599616685290738560;6801.8525;41
2024-09-17T06:41:33.665;599616685298413824;6809.5273;48
2024-09-17T06:41:33.673;599616685306089088;6817.2026;53
2024-09-17T06:41:33.680;599616685313764352;6824.878;53
2024-09-17T06:41:33.688;599616685321439616;6832.5527;55
2024-09-17T06:41:33.696;599616685329115008;6840.229;58
2024-09-17T06:41:33.703;599616685336790272;6847.904;53
2024-09-17T06:41:33.711;599616685344465536;6855.579;48
2024-09-17T06:41:33.719;599616685352140800;6863.2544;53
2024-09-17T06:41:33.726;599616685359816064;6870.929;53
2024-09-17T06:41:33.734;599616685367491328;6878.605;50
2024-09-17T06:41:33.742;599616685375166592;6886.2803;55
2024-09-17T06:41:33.749;599616685382841856;6893.9556;72
2024-09-17T06:41:33.757;599616685390517120;6901.631;91
2024-09-17T06:41:33.765;599616685398192384;6909.3057;99
2024-09-17T06:41:33.772;599616685405867776;6916.9814;87
2024-09-17T06:41:33.780;599616685413543040;6924.6567;60
2024-09-17T06:41:33.788;599616685421218304;6932.332;31
2024-09-17T06:41:33.796;599616685428893568;6940.0073;4
2024-09-17T06:41:33.803;599616685436568832;6947.682;0
2024-09-17T06:41:33.811;599616685444244096;6955.358;4
2024-09-17T06:41:33.819;599616685451919360;6963.033;0
2024-09-17T06:41:33.826;599616685459594624;6970.708;-2
2024-09-17T06:41:33.834;599616685467269888;6978.3833;0
2024-09-17T06:41:33.842;599616685474945152;6986.0586;2
2024-09-17T06:41:33.849;599616685482620544;6993.7344;12
2024-09-17T06:41:33.857;599616685490295808;7001.4097;21
2024-09-17T06:41:33.865;599616685497971072;7009.0845;33
2024-09-17T06:41:33.872;599616685505646336;7016.76;70
2024-09-17T06:41:33.880;599616685513321600;7024.435;203
2024-09-17T06:41:33.888;599616685520996864;7032.1104;536
2024-09-17T06:41:33.895;599616685528672128;7039.786;976
2024-09-17T06:41:33.903;599616685536347392;7047.461;954
2024-09-17T06:41:33.911;599616685544022656;7055.136;176
2024-09-17T06:41:33.918;599616685551697920;7062.8115;-391
2024-09-17T06:41:33.926;599616685559373312;7070.487;-94
2024-09-17T06:41:33.934;599616685567048576;7078.1626;154
2024-09-17T06:41:33.941;599616685574723840;7085.8374;-31
2024-09-17T06:41:33.949;599616685582399104;7093.5127;-29
2024-09-17T06:41:33.957;599616685590074368;7101.188;94
2024-09-17T06:41:33.964;599616685597749632;7108.863;29
2024-09-17T06:41:33.972;599616685605424896;7116.5386;-16
2024-09-17T06:41:33.980;599616685613100160;7124.214;31
2024-09-17T06:41:33.987;599616685620775424;7131.889;36
2024-09-17T06:41:33.995;599616685628450688;7139.5645;26
2024-09-17T06:41:34.003;599616685636126080;7147.2393;48
2024-09-17T06:41:34.010;599616685643801344;7154.915;62
2024-09-17T06:41:34.018;599616685651476608;7162.5903;60
2024-09-17T06:41:34.026;599616685659151872;7170.2656;67
2024-09-17T06:41:34.033;599616685666827136;7177.941;82
2024-09-17T06:41:34.041;599616685674502400;7185.6157;91
2024-09-17T06:41:34.049;599616685682177664;7193.2915;99
2024-09-17T06:41:34.056;599616685689852928;7200.967;103
2024-09-17T06:41:34.064;599616685697528192;7208.6416;111
2024-09-17T06:41:34.072;599616685705203584;7216.3174;120
2024-09-17T06:41:34.079;599616685712878848;7223.992;125
2024-09-17T06:41:34.087;599616685720554112;7231.6675;130
2024-09-17T06:41:34.095;599616685728229376;7239.3433;142
2024-09-17T06:41:34.103;599616685735904640;7247.018;152
2024-09-17T06:41:34.110;599616685743579904;7254.6934;154
2024-09-17T06:41:34.118;599616685751255168;7262.3687;157
2024-09-17T06:41:34.126;599616685758930432;7270.044;164
2024-09-17T06:41:34.133;599616685766605761;7277.7197;164
2024-09-17T06:41:34.141;599616685774281472;7285.395;161
2024-09-17T06:41:34.149;599616685781957120;7293.071;159
2024-09-17T06:41:34.156;599616685789632896;7300.746;152
2024-09-17T06:41:34.164;599616685797308544;7308.4224;140
2024-09-17T06:41:34.172;599616685804984192;7316.098;125
2024-09-17T06:41:34.179;599616685812659968;7323.7734;106
2024-09-17T06:41:34.187;599616685820335616;7331.449;79
2024-09-17T06:41:34.195;599616685828011392;7339.1245;55
2024-09-17T06:41:34.202;599616685835687040;7346.801;33
2024-09-17T06:41:34.210;599616685843362688;7354.4766;16
2024-09-17T06:41:34.218;599616685851038464;7362.152;4
2024-09-17T06:41:34.225;599616685858714112;7369.8276;-2
2024-09-17T06:41:34.233;599616685866389760;7377.5034;2
2024-09-17T06:41:34.241;599616685874065536;7385.179;7
2024-09-17T06:41:34.248;599616685881741184;7392.855;9
2024-09-17T06:41:34.256;599616685889416960;7400.5303;12
2024-09-17T06:41:34.264;599616685897092608;7408.2065;16
2024-09-17T06:41:34.271;599616685904768256;7415.882;21
2024-09-17T06:41:34.279;599616685912444032;7423.5576;26
2024-09-17T06:41:34.287;599616685920119680;7431.2334;31
2024-09-17T06:41:34.294;599616685927795328;7438.9087;33
2024-09-17T06:41:34.302;599616685935471104;7446.585;36
2024-09-17T06:41:34.310;599616685943146752;7454.2603;38
2024-09-17T06:41:34.317;599616685950822400;7461.936;38
2024-09-17T06:41:34.325;599616685958498176;7469.612;41
2024-09-17T06:41:34.333;599616685966173824;7477.2876;43
2024-09-17T06:41:34.340;599616685973849600;7484.9634;43
2024-09-17T06:41:34.348;599616685981525248;7492.6387;38
2024-09-17T06:41:34.356;599616685989200896;7500.3145;41
2024-09-17T06:41:34.363;599616685996876672;7507.9907;45
2024-09-17T06:41:34.371;599616686004552320;7515.666;48
2024-09-17T06:41:34.379;599616686012227968;7523.3413;50
2024-09-17T06:41:34.387;599616686019903744;7531.017;58
2024-09-17T06:41:34.394;599616686027579392;7538.6934;70
2024-09-17T06:41:34.402;599616686035255040;7546.3687;84
2024-09-17T06:41:34.410;599616686042930816;7554.0444;103
2024-09-17T06:41:34.417;599616686050606464;7561.7197;113
2024-09-17T06:41:34.425;599616686058282240;7569.3955;99
2024-09-17T06:41:34.433;599616686065957888;7577.072;70
2024-09-17T06:41:34.440;599616686073633536;7584.747;43
2024-09-17T06:41:34.448;599616686081309312;7592.423;38
2024-09-17T06:41:34.456;599616686088984960;7600.098;45
2024-09-17T06:41:34.463;599616686096660608;7607.7744;45
2024-09-17T06:41:34.471;599616686104336384;7615.45;48
2024-09-17T06:41:34.479;599616686112012032;7623.1255;55
2024-09-17T06:41:34.486;599616686119687808;7630.8013;55
2024-09-17T06:41:34.494;599616686127363456;7638.4766;65
2024-09-17T06:41:34.502;599616686135039104;7646.153;77
2024-09-17T06:41:34.509;599616686142714880;7653.8286;84
2024-09-17T06:41:34.517;599616686150390528;7661.504;91
2024-09-17T06:41:34.525;599616686158066176;7669.1797;152
2024-09-17T06:41:34.532;599616686165741952;7676.8555;362
2024-09-17T06:41:34.540;599616686173417600;7684.5312;780
2024-09-17T06:41:34.548;599616686181093248;7692.207;1080
2024-09-17T06:41:34.555;599616686188769024;7699.8823;652
2024-09-17T06:41:34.563;599616686196444672;7707.5586;-169
2024-09-17T06:41:34.571;599616686204120448;7715.234;-270
2024-09-17T06:41:34.578;599616686211796096;7722.9097;125
2024-09-17T06:41:34.586;599616686219471744;7730.5854;101
2024-09-17T06:41:34.594;599616686227147520;7738.261;-45
2024-09-17T06:41:34.601;599616686234823168;7745.937;70
2024-09-17T06:41:34.609;599616686242498816;7753.6123;106
2024-09-17T06:41:34.617;599616686250174592;7761.288;33
2024-09-17T06:41:34.624;599616686257850240;7768.964;60
2024-09-17T06:41:34.632;599616686265526016;7776.6396;103
2024-09-17T06:41:34.640;599616686273201664;7784.3154;94
2024-09-17T06:41:34.647;599616686280877312;7791.9907;101
2024-09-17T06:41:34.655;599616686288553088;7799.6665;123
2024-09-17T06:41:34.663;599616686296228736;7807.343;128
2024-09-17T06:41:34.671;599616686303904384;7815.018;135
2024-09-17T06:41:34.678;599616686311580160;7822.694;152
2024-09-17T06:41:34.686;599616686319255808;7830.369;161
2024-09-17T06:41:34.694;599616686326931500;7838.0454;169
2024-09-17T06:41:34.701;599616686334607104;7845.7207;183
2024-09-17T06:41:34.709;599616686342282752;7853.3965;188
2024-09-17T06:41:34.717;599616686349958528;7861.072;188
2024-09-17T06:41:34.724;599616686357634176;7868.7476;198
2024-09-17T06:41:34.732;599616686365309824;7876.424;212
2024-09-17T06:41:34.740;599616686372985600;7884.099;219
2024-09-17T06:41:34.747;599616686380661248;7891.775;224
2024-09-17T06:41:34.755;599616686388337024;7899.45;227
2024-09-17T06:41:34.763;599616686396012672;7907.1265;227
2024-09-17T06:41:34.770;599616686403688320;7914.8022;227
2024-09-17T06:41:34.778;599616686411364096;7922.4775;229
2024-09-17T06:41:34.786;599616686419039744;7930.1533;229
2024-09-17T06:41:34.793;599616686426715392;7937.829;227
2024-09-17T06:41:34.801;599616686434391168;7945.505;224
2024-09-17T06:41:34.809;599616686442066816;7953.1807;219
2024-09-17T06:41:34.816;599616686449742592;7960.856;210
2024-09-17T06:41:34.824;599616686457418240;7968.5317;198
2024-09-17T06:41:34.832;599616686465093888;7976.2075;174
2024-09-17T06:41:34.839;599616686472769664;7983.8833;140
2024-09-17T06:41:34.847;599616686480445312;7991.559;106
2024-09-17T06:41:34.855;599616686488120960;7999.2344;84
2024-09-17T06:41:34.862;599616686495796736;8006.9106;72
2024-09-17T06:41:34.870;599616686503472384;8014.586;67
2024-09-17T06:41:34.878;599616686511148032;8022.2617;65
2024-09-17T06:41:34.885;599616686518823808;8029.9375;65
2024-09-17T06:41:34.893;599616686526499456;8037.6133;67
2024-09-17T06:41:34.901;599616686534175232;8045.289;67
2024-09-17T06:41:34.908;599616686541850880;8052.9644;70
2024-09-17T06:41:34.916;599616686549526528;8060.64;79
2024-09-17T06:41:34.924;599616686557202304;8068.316;84
2024-09-17T06:41:34.931;599616686564877952;8075.9917;84
2024-09-17T06:41:34.939;599616686572553600;8083.667;84
2024-09-17T06:41:34.947;599616686580229376;8091.343;84
2024-09-17T06:41:34.955;599616686587905024;8099.0186;89
2024-09-17T06:41:34.962;599616686595580672;8106.6943;89
2024-09-17T06:41:34.970;599616686603256448;8114.37;89
2024-09-17T06:41:34.978;599616686610932096;8122.0454;87
2024-09-17T06:41:34.985;599616686618607872;8129.721;82
2024-09-17T06:41:34.993;599616686626283520;8137.3975;79
2024-09-17T06:41:35.001;599616686633959168;8145.0728;82
2024-09-17T06:41:35.008;599616686641634944;8152.7485;82
2024-09-17T06:41:35.016;599616686649310592;8160.424;82
2024-09-17T06:41:35.024;599616686656986240;8168.0996;82
2024-09-17T06:41:35.031;599616686664662016;8175.776;79
2024-09-17T06:41:35.039;599616686672337664;8183.451;77
2024-09-17T06:41:35.047;599616686680013440;8191.127;74
2024-09-17T06:41:35.054;599616686687689088;8198.803;79
2024-09-17T06:41:35.062;599616686695364736;8206.479;77
2024-09-17T06:41:35.070;599616686703040512;8214.154;74
2024-09-17T06:41:35.077;599616686710716160;8221.83;79
2024-09-17T06:41:35.085;599616686718391808;8229.506;84
2024-09-17T06:41:35.093;599616686726067584;8237.181;87
2024-09-17T06:41:35.100;599616686733743232;8244.856;99
2024-09-17T06:41:35.108;599616686741418880;8252.533;120
2024-09-17T06:41:35.116;599616686749094656;8260.208;142
2024-09-17T06:41:35.123;599616686756770304;8267.884;157
2024-09-17T06:41:35.131;599616686764446080;8275.56;149
2024-09-17T06:41:35.139;599616686772121728;8283.235;123
2024-09-17T06:41:35.146;599616686779797376;8290.911;94
2024-09-17T06:41:35.154;599616686787473152;8298.587;84
2024-09-17T06:41:35.162;599616686795148800;8306.263;87
2024-09-17T06:41:35.169;599616686802824448;8313.9375;84
2024-09-17T06:41:35.177;599616686810500224;8321.614;79
2024-09-17T06:41:35.185;599616686818175872;8329.29;84
2024-09-17T06:41:35.192;599616686825851648;8336.965;89
2024-09-17T06:41:35.200;599616686833527296;8344.641;89
2024-09-17T06:41:35.208;599616686841202944;8352.316;91
2024-09-17T06:41:35.215;599616686848878720;8359.992;96
2024-09-17T06:41:35.223;599616686856554368;8367.668;99
2024-09-17T06:41:35.231;599616686864230016;8375.344;120
2024-09-17T06:41:35.239;599616686871905792;8383.02;239
2024-09-17T06:41:35.246;599616686879581440;8390.695;567
2024-09-17T06:41:35.254;599616686887257239;8398.371;1007
2024-09-17T06:41:35.262;599616686894932864;8406.047;981
2024-09-17T06:41:35.269;599616686902608512;8413.722;219
2024-09-17T06:41:35.277;599616686910284288;8421.398;-326
2024-09-17T06:41:35.285;599616686917959936;8429.073;-45
2024-09-17T06:41:35.292;599616686925635584;8436.749;174
2024-09-17T06:41:35.300;599616686933311360;8444.425;-14
2024-09-17T06:41:35.308;599616686940987008;8452.101;-9
2024-09-17T06:41:35.315;599616686948662784;8459.776;108
2024-09-17T06:41:35.323;599616686956338432;8467.452;55
2024-09-17T06:41:35.331;599616686964014080;8475.128;31
2024-09-17T06:41:35.338;599616686971689856;8482.804;84
2024-09-17T06:41:35.346;599616686979365504;8490.4795;89
2024-09-17T06:41:35.354;599616686987041152;8498.154;77
2024-09-17T06:41:35.361;599616686994716928;8505.83;99
2024-09-17T06:41:35.369;599616687002392576;8513.506;116
2024-09-17T06:41:35.377;599616687010068352;8521.183;118
2024-09-17T06:41:35.384;599616687017744000;8528.857;125
2024-09-17T06:41:35.392;599616687025419648;8536.533;135
2024-09-17T06:41:35.400;599616687033095424;8544.209;140
2024-09-17T06:41:35.407;599616687040771072;8551.885;147
2024-09-17T06:41:35.415;599616687048446720;8559.561;154
2024-09-17T06:41:35.423;599616687056122496;8567.236;159
2024-09-17T06:41:35.430;599616687063798144;8574.911;164
2024-09-17T06:41:35.438;599616687071473792;8582.587;171
2024-09-17T06:41:35.446;599616687079149568;8590.264;178
2024-09-17T06:41:35.453;599616687086825216;8597.939;188
2024-09-17T06:41:35.461;599616687094500992;8605.614;198
2024-09-17T06:41:35.469;599616687102176640;8613.29;205
2024-09-17T06:41:35.476;599616687109852288;8620.966;207
2024-09-17T06:41:35.484;599616687117528064;8628.642;212
2024-09-17T06:41:35.492;599616687125203712;8636.317;212
2024-09-17T06:41:35.499;599616687132879360;8643.992;210
2024-09-17T06:41:35.507;599616687140555136;8651.669;203
2024-09-17T06:41:35.515;599616687148230784;8659.345;193
2024-09-17T06:41:35.523;599616687155906432;8667.0205;186
2024-09-17T06:41:35.530;599616687163582208;8674.696;176
2024-09-17T06:41:35.538;599616687171257856;8682.371;161
2024-09-17T06:41:35.546;599616687178933632;8690.047;137
2024-09-17T06:41:35.553;599616687186609280;8697.723;116
2024-09-17T06:41:35.561;599616687194284928;8705.398;94
2024-09-17T06:41:35.569;599616687201960704;8713.074;72
2024-09-17T06:41:35.576;599616687209636352;8720.75;55
2024-09-17T06:41:35.584;599616687217312000;8728.426;48
2024-09-17T06:41:35.592;599616687224987776;8736.102;45
2024-09-17T06:41:35.599;599616687232663424;8743.777;45
2024-09-17T06:41:35.607;599616687240339200;8751.453;48
2024-09-17T06:41:35.615;599616687248014848;8759.128;50
2024-09-17T06:41:35.622;599616687255690496;8766.804;53
2024-09-17T06:41:35.630;599616687263366272;8774.4795;58
2024-09-17T06:41:35.638;599616687271041920;8782.156;62
2024-09-17T06:41:35.645;599616687278717568;8789.832;62
2024-09-17T06:41:35.653;599616687286393344;8797.507;62
2024-09-17T06:41:35.661;599616687294068992;8805.183;65
2024-09-17T06:41:35.668;599616687301744640;8812.858;67
2024-09-17T06:41:35.676;599616687309420416;8820.534;67
2024-09-17T06:41:35.684;599616687317096064;8828.209;67
2024-09-17T06:41:35.691;599616687324771840;8835.885;67
2024-09-17T06:41:35.699;599616687332447488;8843.561;62
2024-09-17T06:41:35.707;599616687340123136;8851.237;60
2024-09-17T06:41:35.714;599616687347798912;8858.913;60
2024-09-17T06:41:35.722;599616687355474560;8866.589;60
2024-09-17T06:41:35.730;599616687363150208;8874.264;62
2024-09-17T06:41:35.737;599616687370825984;8881.939;62
2024-09-17T06:41:35.745;599616687378501632;8889.615;60
2024-09-17T06:41:35.753;599616687386177408;8897.291;60
2024-09-17T06:41:35.760;599616687393853056;8904.966;60
2024-09-17T06:41:35.768;599616687401528704;8912.642;60
2024-09-17T06:41:35.776;599616687409204480;8920.318;62
2024-09-17T06:41:35.783;599616687416880128;8927.994;62
2024-09-17T06:41:35.791;599616687424555776;8935.67;62
2024-09-17T06:41:35.799;599616687432231552;8943.346;62
2024-09-17T06:41:35.807;599616687439907200;8951.0205;65
2024-09-17T06:41:35.814;599616687447582978;8958.696;67
2024-09-17T06:41:35.822;599616687455258240;8966.371;70
2024-09-17T06:41:35.830;599616687462933504;8974.047;70
2024-09-17T06:41:35.837;599616687470608768;8981.722;70
2024-09-17T06:41:35.845;599616687478284032;8989.398;72
2024-09-17T06:41:35.853;599616687485959296;8997.073;77
2024-09-17T06:41:35.860;599616687493634688;9004.749;77
2024-09-17T06:41:35.868;599616687501309952;9012.424;77
2024-09-17T06:41:35.876;599616687508985216;9020.099;79
2024-09-17T06:41:35.883;599616687516660480;9027.774;87
2024-09-17T06:41:35.891;599616687524335744;9035.449;106
2024-09-17T06:41:35.899;599616687532011008;9043.124;128
2024-09-17T06:41:35.906;599616687539686272;9050.8;140
2024-09-17T06:41:35.914;599616687547361536;9058.475;128
2024-09-17T06:41:35.922;599616687555036800;9066.149;103
2024-09-17T06:41:35.929;599616687562712064;9073.826;79
2024-09-17T06:41:35.937;599616687570387456;9081.501;70
2024-09-17T06:41:35.945;599616687578062720;9089.177;72
2024-09-17T06:41:35.952;599616687585737984;9096.852;70
2024-09-17T06:41:35.960;599616687593413248;9104.527;65
2024-09-17T06:41:35.968;599616687601088512;9112.202;67
2024-09-17T06:41:35.975;599616687608763776;9119.877;70
2024-09-17T06:41:35.983;599616687616439040;9127.553;70
2024-09-17T06:41:35.991;599616687624114304;9135.228;72
2024-09-17T06:41:35.998;599616687631789568;9142.902;77
2024-09-17T06:41:36.006;599616687639464832;9150.579;77
2024-09-17T06:41:36.014;599616687647140224;9158.254;99
2024-09-17T06:41:36.021;599616687654815488;9165.93;232
2024-09-17T06:41:36.029;599616687662490752;9173.6045;584
2024-09-17T06:41:36.037;599616687670166016;9181.279;1012
2024-09-17T06:41:36.044;599616687677841280;9188.955;918
2024-09-17T06:41:36.052;599616687685516544;9196.63;135
2024-09-17T06:41:36.060;599616687693191808;9204.306;-340
2024-09-17T06:41:36.067;599616687700867072;9211.98;-36
2024-09-17T06:41:36.075;599616687708542336;9219.655;135
2024-09-17T06:41:36.083;599616687716217600;9227.332;-53
2024-09-17T06:41:36.091;599616687723892992;9235.007;-26
2024-09-17T06:41:36.098;599616687731568256;9242.682;82
2024-09-17T06:41:36.106;599616687739243520;9250.357;24
2024-09-17T06:41:36.114;599616687746918784;9258.032;9
2024-09-17T06:41:36.121;599616687754594048;9265.708;62
2024-09-17T06:41:36.129;599616687762269312;9273.383;62
2024-09-17T06:41:36.137;599616687769944576;9281.058;50
2024-09-17T06:41:36.144;599616687777619840;9288.733;72
2024-09-17T06:41:36.152;599616687785295104;9296.408;84
2024-09-17T06:41:36.160;599616687792970368;9304.085;84
2024-09-17T06:41:36.167;599616687800645760;9311.76;96
2024-09-17T06:41:36.175;599616687808321024;9319.435;106
2024-09-17T06:41:36.183;599616687815996288;9327.11;108
2024-09-17T06:41:36.190;599616687823671552;9334.785;116
2024-09-17T06:41:36.198;599616687831346816;9342.46;123
2024-09-17T06:41:36.206;599616687839022080;9350.136;130
2024-09-17T06:41:36.213;599616687846697344;9357.811;137
2024-09-17T06:41:36.221;599616687854372608;9365.486;149
2024-09-17T06:41:36.229;599616687862047872;9373.161;161
2024-09-17T06:41:36.236;599616687869723136;9380.836;169
2024-09-17T06:41:36.244;599616687877398528;9388.513;174
2024-09-17T06:41:36.252;599616687885073792;9396.1875;181
2024-09-17T06:41:36.259;599616687892749056;9403.863;186
2024-09-17T06:41:36.267;599616687900424320;9411.538;188
2024-09-17T06:41:36.275;599616687908099584;9419.213;188
2024-09-17T06:41:36.282;599616687915774848;9426.889;186
2024-09-17T06:41:36.290;599616687923450112;9434.563;183
2024-09-17T06:41:36.298;599616687931125376;9442.238;176
2024-09-17T06:41:36.305;599616687938800640;9449.914;169
2024-09-17T06:41:36.313;599616687946476032;9457.589;157
2024-09-17T06:41:36.321;599616687954151296;9465.266;145
2024-09-17T06:41:36.328;599616687961826560;9472.94;123
2024-09-17T06:41:36.336;599616687969501824;9480.616;99
2024-09-17T06:41:36.344;599616687977177088;9488.291;79
2024-09-17T06:41:36.351;599616687984852352;9495.966;60
2024-09-17T06:41:36.359;599616687992527616;9503.642;41
2024-09-17T06:41:36.367;599616688000202880;9511.316;29
2024-09-17T06:41:36.374;599616688007878199;9518.991;26
2024-09-17T06:41:36.382;599616688015553792;9526.667;26
2024-09-17T06:41:36.390;599616688023229440;9534.343;29
2024-09-17T06:41:36.398;599616688030905216;9542.02;31
2024-09-17T06:41:36.405;599616688038580864;9549.695;33
2024-09-17T06:41:36.413;599616688046256512;9557.37;36
2024-09-17T06:41:36.421;599616688053932288;9565.046;38
2024-09-17T06:41:36.428;599616688061607936;9572.722;45
2024-09-17T06:41:36.436;599616688069283712;9580.397;53
2024-09-17T06:41:36.444;599616688076959360;9588.072;53
2024-09-17T06:41:36.451;599616688084635008;9595.748;55
2024-09-17T06:41:36.459;599616688092310784;9603.424;53
2024-09-17T06:41:36.467;599616688099986432;9611.101;43
2024-09-17T06:41:36.474;599616688107662080;9618.776;43
2024-09-17T06:41:36.482;599616688115337856;9626.452;45
2024-09-17T06:41:36.490;599616688123013504;9634.127;41
2024-09-17T06:41:36.497;599616688130689280;9641.803;38
2024-09-17T06:41:36.505;599616688138364928;9649.479;38
2024-09-17T06:41:36.513;599616688146040576;9657.154;38
2024-09-17T06:41:36.520;599616688153716352;9664.829;36
2024-09-17T06:41:36.528;599616688161392000;9672.505;38
2024-09-17T06:41:36.536;599616688169067648;9680.182;38
2024-09-17T06:41:36.543;599616688176743424;9687.857;36
2024-09-17T06:41:36.551;599616688184419072;9695.533;33
2024-09-17T06:41:36.559;599616688192094720;9703.208;36
2024-09-17T06:41:36.566;599616688199770496;9710.884;41
2024-09-17T06:41:36.574;599616688207446144;9718.56;41
2024-09-17T06:41:36.582;599616688215121920;9726.235;41
2024-09-17T06:41:36.589;599616688222797568;9733.911;43
2024-09-17T06:41:36.597;599616688230473216;9741.587;43
2024-09-17T06:41:36.605;599616688238148992;9749.263;43
2024-09-17T06:41:36.612;599616688245824640;9756.938;45
2024-09-17T06:41:36.620;599616688253500288;9764.614;48
2024-09-17T06:41:36.628;599616688261176064;9772.29;48
2024-09-17T06:41:36.635;599616688268851712;9779.965;48
2024-09-17T06:41:36.643;599616688276527360;9787.641;50
2024-09-17T06:41:36.651;599616688284203136;9795.316;50
2024-09-17T06:41:36.658;599616688291878784;9802.992;50
2024-09-17T06:41:36.666;599616688299554560;9810.669;53
2024-09-17T06:41:36.674;599616688307230208;9818.344;55
2024-09-17T06:41:36.682;599616688314905856;9826.02;55
2024-09-17T06:41:36.689;599616688322581632;9833.695;55
2024-09-17T06:41:36.697;599616688330257280;9841.371;58
2024-09-17T06:41:36.705;599616688337932928;9849.047;55
2024-09-17T06:41:36.712;599616688345608704;9856.722;62
2024-09-17T06:41:36.720;599616688353284352;9864.397;82
2024-09-17T06:41:36.728;599616688360960128;9872.073;103
2024-09-17T06:41:36.735;599616688368635776;9879.75;116
2024-09-17T06:41:36.743;599616688376311424;9887.425;106
2024-09-17T06:41:36.751;599616688383987200;9895.101;74
2024-09-17T06:41:36.758;599616688391662848;9902.776;50
2024-09-17T06:41:36.766;599616688399338496;9910.452;50
2024-09-17T06:41:36.774;599616688407014272;9918.128;50
2024-09-17T06:41:36.781;599616688414689920;9925.804;38
2024-09-17T06:41:36.789;599616688422365568;9933.479;36
2024-09-17T06:41:36.797;599616688430041344;9941.155;38
2024-09-17T06:41:36.804;599616688437716992;9948.831;36
2024-09-17T06:41:36.812;599616688445392768;9956.507;36
2024-09-17T06:41:36.820;599616688453068416;9964.182;43
2024-09-17T06:41:36.827;599616688460744064;9971.857;45
2024-09-17T06:41:36.835;599616688468419840;9979.533;43
2024-09-17T06:41:36.843;599616688476095488;9987.209;55
2024-09-17T06:41:36.850;599616688483771136;9994.885;145
2024-09-17T06:41:36.858;599616688491446912;10002.561;432
2024-09-17T06:41:36.866;599616688499122560;10010.236;887
2024-09-17T06:41:36.873;599616688506798336;10017.912;998
2024-09-17T06:41:36.881;599616688514473984;10025.588;340
2024-09-17T06:41:36.889;599616688522149632;10033.264;-328
2024-09-17T06:41:36.896;599616688529825408;10040.938;-176
2024-09-17T06:41:36.904;599616688537501056;10048.614;108
2024-09-17T06:41:36.912;599616688545176704;10056.29;-41
2024-09-17T06:41:36.919;599616688552852480;10063.966;-87
2024-09-17T06:41:36.927;599616688560528128;10071.643;43
2024-09-17T06:41:36.935;599616688568203938;10079.318;16
2024-09-17T06:41:36.942;599616688575879552;10086.993;-26
2024-09-17T06:41:36.950;599616688583555200;10094.669;21
2024-09-17T06:41:36.958;599616688591230976;10102.345;38
2024-09-17T06:41:36.966;599616688598906624;10110.0205;21
2024-09-17T06:41:36.973;599616688606582272;10117.695;38
2024-09-17T06:41:36.981;599616688614258048;10125.371;50
2024-09-17T06:41:36.989;599616688621933696;10133.047;53
2024-09-17T06:41:36.996;599616688629609472;10140.724;65
2024-09-17T06:41:37.004;599616688637285120;10148.399;77
2024-09-17T06:41:37.012;599616688644960768;10156.074;77
2024-09-17T06:41:37.019;599616688652636544;10163.75;84
2024-09-17T06:41:37.027;599616688660312192;10171.426;96
2024-09-17T06:41:37.035;599616688667987840;10179.102;103
2024-09-17T06:41:37.042;599616688675663616;10186.777;111
2024-09-17T06:41:37.050;599616688683339264;10194.452;118
2024-09-17T06:41:37.058;599616688691015040;10202.128;130
2024-09-17T06:41:37.065;599616688698690688;10209.805;142
2024-09-17T06:41:37.073;599616688706366336;10217.48;152
2024-09-17T06:41:37.081;599616688714042112;10225.156;157
2024-09-17T06:41:37.088;599616688721717760;10232.831;161
2024-09-17T06:41:37.096;599616688729393408;10240.507;169
2024-09-17T06:41:37.104;599616688737069184;10248.183;171
2024-09-17T06:41:37.111;599616688744744832;10255.858;169
2024-09-17T06:41:37.119;599616688752420480;10263.533;164
2024-09-17T06:41:37.127;599616688760096256;10271.209;159
2024-09-17T06:41:37.134;599616688767771904;10278.886;152
2024-09-17T06:41:37.142;599616688775447680;10286.562;140
2024-09-17T06:41:37.150;599616688783123328;10294.237;120
2024-09-17T06:41:37.157;599616688790798976;10301.913;99
2024-09-17T06:41:37.165;599616688798474752;10309.588;74
2024-09-17T06:41:37.173;599616688806150400;10317.264;50
2024-09-17T06:41:37.180;599616688813826048;10324.939;31
2024-09-17T06:41:37.188;599616688821501824;10332.615;12
2024-09-17T06:41:37.196;599616688829177472;10340.291;-2
2024-09-17T06:41:37.203;599616688836853120;10347.967;-12
2024-09-17T06:41:37.211;599616688844528896;10355.643;-14
2024-09-17T06:41:37.219;599616688852204544;10363.318;-12
2024-09-17T06:41:37.226;599616688859880320;10370.994;-9
2024-09-17T06:41:37.234;599616688867555968;10378.67;-7
2024-09-17T06:41:37.242;599616688875231616;10386.345;-2
2024-09-17T06:41:37.250;599616688882907392;10394.0205;4
2024-09-17T06:41:37.257;599616688890583040;10401.696;12
2024-09-17T06:41:37.265;599616688898258688;10409.373;16
2024-09-17T06:41:37.273;599616688905934464;10417.048;19
2024-09-17T06:41:37.280;599616688913610112;10424.724;24
2024-09-17T06:41:37.288;599616688921285888;10432.399;26
2024-09-17T06:41:37.296;599616688928961536;10440.075;26
2024-09-17T06:41:37.303;599616688936637184;10447.751;24
2024-09-17T06:41:37.311;599616688944312960;10455.427;24
2024-09-17T06:41:37.319;599616688951988608;10463.102;21
2024-09-17T06:41:37.326;599616688959664256;10470.778;19
2024-09-17T06:41:37.334;599616688967340032;10478.454;21
2024-09-17T06:41:37.342;599616688975015680;10486.13;19
2024-09-17T06:41:37.349;599616688982691328;10493.805;19
2024-09-17T06:41:37.357;599616688990367104;10501.48;19
2024-09-17T06:41:37.365;599616688998042752;10509.156;19
2024-09-17T06:41:37.372;599616689005718528;10516.832;16
2024-09-17T06:41:37.380;599616689013394176;10524.508;16
2024-09-17T06:41:37.388;599616689021069824;10532.183;19
2024-09-17T06:41:37.395;599616689028745600;10539.859;19
2024-09-17T06:41:37.403;599616689036421248;10547.535;19
2024-09-17T06:41:37.411;599616689044096896;10555.211;19
2024-09-17T06:41:37.418;599616689051772672;10562.887;19
2024-09-17T06:41:37.426;599616689059448320;10570.562;21
2024-09-17T06:41:37.434;599616689067124096;10578.237;24
2024-09-17T06:41:37.441;599616689074799744;10585.913;24
2024-09-17T06:41:37.449;599616689082475392;10593.589;24
2024-09-17T06:41:37.457;599616689090151168;10601.266;24
2024-09-17T06:41:37.464;599616689097826816;10608.94;26
2024-09-17T06:41:37.472;599616689105502464;10616.616;29
2024-09-17T06:41:37.480;599616689113178240;10624.292;31
2024-09-17T06:41:37.487;599616689120853888;10631.968;33
2024-09-17T06:41:37.495;599616689128529677;10639.644;36
2024-09-17T06:41:37.503;599616689136204928;10647.318;36
2024-09-17T06:41:37.510;599616689143880192;10654.993;38
2024-09-17T06:41:37.518;599616689151555456;10662.669;43
2024-09-17T06:41:37.526;599616689159230720;10670.344;45
2024-09-17T06:41:37.534;599616689166905984;10678.0205;50
2024-09-17T06:41:37.541;599616689174581376;10685.695;50
2024-09-17T06:41:37.549;599616689182256640;10693.37;50
2024-09-17T06:41:37.557;599616689189931904;10701.046;53
2024-09-17T06:41:37.564;599616689197607168;10708.721;58
2024-09-17T06:41:37.572;599616689205282432;10716.3955;74
2024-09-17T06:41:37.580;599616689212957696;10724.071;99
2024-09-17T06:41:37.587;599616689220632960;10731.746;116
2024-09-17T06:41:37.595;599616689228308224;10739.422;111
2024-09-17T06:41:37.603;599616689235983488;10747.097;84
2024-09-17T06:41:37.610;599616689243658752;10754.771;55
2024-09-17T06:41:37.618;599616689251334144;10762.448;48
2024-09-17T06:41:37.626;599616689259009408;10770.123;50
2024-09-17T06:41:37.633;599616689266684672;10777.799;43
2024-09-17T06:41:37.641;599616689274359936;10785.474;41
2024-09-17T06:41:37.649;599616689282035200;10793.148;43
2024-09-17T06:41:37.656;599616689289710464;10800.824;45
2024-09-17T06:41:37.664;599616689297385728;10808.499;48
2024-09-17T06:41:37.672;599616689305060992;10816.174;48
2024-09-17T06:41:37.679;599616689312736256;10823.85;55
2024-09-17T06:41:37.687;599616689320411520;10831.524;60
2024-09-17T06:41:37.695;599616689328086912;10839.201;60
2024-09-17T06:41:37.702;599616689335762176;10846.876;94
2024-09-17T06:41:37.710;599616689343437440;10854.552;263
2024-09-17T06:41:37.718;599616689351112704;10862.227;657
2024-09-17T06:41:37.725;599616689358787968;10869.901;1039
2024-09-17T06:41:37.733;599616689366463232;10877.577;785
2024-09-17T06:41:37.741;599616689374138496;10885.252;-31
2024-09-17T06:41:37.748;599616689381813760;10892.927;-323
2024-09-17T06:41:37.756;599616689389489024;10900.603;24
2024-09-17T06:41:37.764;599616689397164288;10908.277;82
2024-09-17T06:41:37.771;599616689404839680;10915.954;-84
2024-09-17T06:41:37.779;599616689412514944;10923.629;0
2024-09-17T06:41:37.787;599616689420190208;10931.304;67
2024-09-17T06:41:37.794;599616689427865472;10938.9795;0
2024-09-17T06:41:37.802;599616689435540736;10946.654;12
2024-09-17T06:41:37.810;599616689443216000;10954.33;58
2024-09-17T06:41:37.818;599616689450891264;10962.005;48
2024-09-17T06:41:37.825;599616689458566528;10969.68;45
2024-09-17T06:41:37.833;599616689466241792;10977.355;67
2024-09-17T06:41:37.841;599616689473917056;10985.03;74
2024-09-17T06:41:37.848;599616689481592448;10992.705;79
2024-09-17T06:41:37.856;599616689489267712;11000.382;94
2024-09-17T06:41:37.864;599616689496942976;11008.057;103
2024-09-17T06:41:37.871;599616689504618240;11015.732;111
2024-09-17T06:41:37.879;599616689512293504;11023.407;120
2024-09-17T06:41:37.887;599616689519968768;11031.082;128
2024-09-17T06:41:37.894;599616689527644032;11038.758;135
2024-09-17T06:41:37.902;599616689535319296;11046.433;147
2024-09-17T06:41:37.910;599616689542994560;11054.108;157
2024-09-17T06:41:37.917;599616689550669824;11061.783;166
2024-09-17T06:41:37.925;599616689558345216;11069.458;174
2024-09-17T06:41:37.933;599616689566020480;11077.135;181
2024-09-17T06:41:37.940;599616689573695744;11084.81;190
2024-09-17T06:41:37.948;599616689581371008;11092.484;200
2024-09-17T06:41:37.956;599616689589046272;11100.16;207
2024-09-17T06:41:37.963;599616689596721536;11107.835;210
2024-09-17T06:41:37.971;599616689604396800;11115.511;207
2024-09-17T06:41:37.979;599616689612072064;11123.186;203
2024-09-17T06:41:37.986;599616689619747328;11130.86;195
2024-09-17T06:41:37.994;599616689627422720;11138.536;186
2024-09-17T06:41:38.002;599616689635097984;11146.211;171
2024-09-17T06:41:38.009;599616689642773248;11153.888;149
2024-09-17T06:41:38.017;599616689650448512;11161.5625;123
2024-09-17T06:41:38.025;599616689658123776;11169.237;96
2024-09-17T06:41:38.032;599616689665799040;11176.913;70
2024-09-17T06:41:38.040;599616689673474304;11184.588;45
2024-09-17T06:41:38.048;599616689681149568;11192.263;26
2024-09-17T06:41:38.055;599616689688824898;11199.938;14
2024-09-17T06:41:38.063;599616689696500608;11207.614;7
2024-09-17T06:41:38.071;599616689704176256;11215.29;2
2024-09-17T06:41:38.078;599616689711852032;11222.965;7
2024-09-17T06:41:38.086;599616689719527680;11230.642;12
2024-09-17T06:41:38.094;599616689727203328;11238.317;9
2024-09-17T06:41:38.101;599616689734879104;11245.993;14
2024-09-17T06:41:38.109;599616689742554752;11253.668;21
2024-09-17T06:41:38.117;599616689750230528;11261.344;24
2024-09-17T06:41:38.125;599616689757906176;11269.02;29
2024-09-17T06:41:38.132;599616689765581824;11276.695;36
2024-09-17T06:41:38.140;599616689773257600;11284.371;38
2024-09-17T06:41:38.148;599616689780933248;11292.047;38
2024-09-17T06:41:38.155;599616689788608896;11299.723;41
2024-09-17T06:41:38.163;599616689796284672;11307.398;41
2024-09-17T06:41:38.171;599616689803960320;11315.074;38
2024-09-17T06:41:38.178;599616689811636096;11322.75;36
2024-09-17T06:41:38.186;599616689819311744;11330.425;36
2024-09-17T06:41:38.194;599616689826987392;11338.101;36
2024-09-17T06:41:38.201;599616689834663168;11345.776;31
2024-09-17T06:41:38.209;599616689842338816;11353.452;29
2024-09-17T06:41:38.217;599616689850014464;11361.129;29
2024-09-17T06:41:38.224;599616689857690240;11368.805;29
2024-09-17T06:41:38.232;599616689865365888;11376.4795;29
2024-09-17T06:41:38.240;599616689873041536;11384.155;31
2024-09-17T06:41:38.247;599616689880717312;11391.831;29
2024-09-17T06:41:38.255;599616689888392960;11399.507;31
2024-09-17T06:41:38.263;599616689896068736;11407.182;33
2024-09-17T06:41:38.270;599616689903744384;11414.857;33
2024-09-17T06:41:38.278;599616689911420032;11422.533;33
2024-09-17T06:41:38.286;599616689919095808;11430.21;36
2024-09-17T06:41:38.293;599616689926771456;11437.886;38
2024-09-17T06:41:38.301;599616689934447104;11445.561;38
2024-09-17T06:41:38.309;599616689942122880;11453.236;41
2024-09-17T06:41:38.316;599616689949798528;11460.912;43
2024-09-17T06:41:38.324;599616689957474176;11468.588;45
2024-09-17T06:41:38.332;599616689965149952;11476.264;48
2024-09-17T06:41:38.339;599616689972825600;11483.938;48
2024-09-17T06:41:38.347;599616689980501376;11491.614;48
2024-09-17T06:41:38.355;599616689988177024;11499.291;48
2024-09-17T06:41:38.362;599616689995852672;11506.967;50
2024-09-17T06:41:38.370;599616690003528448;11514.643;50
2024-09-17T06:41:38.378;599616690011204096;11522.317;53
2024-09-17T06:41:38.385;599616690018879744;11529.993;50
2024-09-17T06:41:38.393;599616690026555520;11537.669;50
2024-09-17T06:41:38.401;599616690034231168;11545.345;53
2024-09-17T06:41:38.409;599616690041906944;11553.0205;55
2024-09-17T06:41:38.416;599616690049582592;11560.696;55
2024-09-17T06:41:38.424;599616690057258240;11568.372;58
2024-09-17T06:41:38.432;599616690064934016;11576.048;55
2024-09-17T06:41:38.439;599616690072609664;11583.724;58
2024-09-17T06:41:38.447;599616690080285312;11591.399;65
2024-09-17T06:41:38.455;599616690087961088;11599.074;91
2024-09-17T06:41:38.462;599616690095636736;11606.75;118
2024-09-17T06:41:38.470;599616690103312384;11614.426;125
2024-09-17T06:41:38.478;599616690110988160;11622.102;101
2024-09-17T06:41:38.485;599616690118663808;11629.777;70
2024-09-17T06:41:38.493;599616690126339584;11637.453;55
2024-09-17T06:41:38.501;599616690134015232;11645.129;53
2024-09-17T06:41:38.508;599616690141690880;11652.805;53
2024-09-17T06:41:38.516;599616690149366656;11660.48;45
2024-09-17T06:41:38.524;599616690157042304;11668.156;43
2024-09-17T06:41:38.531;599616690164717952;11675.831;43
2024-09-17T06:41:38.539;599616690172393728;11683.507;45
2024-09-17T06:41:38.547;599616690180069376;11691.183;43
2024-09-17T06:41:38.554;599616690187745152;11698.859;45
2024-09-17T06:41:38.562;599616690195420800;11706.534;53
2024-09-17T06:41:38.570;599616690203096448;11714.21;53
2024-09-17T06:41:38.577;599616690210772224;11721.886;58
2024-09-17T06:41:38.585;599616690218447872;11729.562;135
2024-09-17T06:41:38.593;599616690226123520;11737.237;403
2024-09-17T06:41:38.600;599616690233799296;11744.913;850
2024-09-17T06:41:38.608;599616690241474944;11752.588;1024
2024-09-17T06:41:38.616;599616690249150637;11760.265;430
2024-09-17T06:41:38.623;599616690256826240;11767.94;-290
2024-09-17T06:41:38.631;599616690264501888;11775.615;-212
2024-09-17T06:41:38.639;599616690272177664;11783.291;99
2024-09-17T06:41:38.646;599616690279853312;11790.967;-21
2024-09-17T06:41:38.654;599616690287528960;11798.643;-89
2024-09-17T06:41:38.662;599616690295204736;11806.318;41
2024-09-17T06:41:38.669;599616690302880384;11813.994;26
2024-09-17T06:41:38.677;599616690310556160;11821.669;-24
2024-09-17T06:41:38.685;599616690318231808;11829.346;21
2024-09-17T06:41:38.693;599616690325907456;11837.021;43
2024-09-17T06:41:38.700;599616690333583232;11844.697;26
2024-09-17T06:41:38.708;599616690341258880;11852.372;36
2024-09-17T06:41:38.716;599616690348934528;11860.048;50
2024-09-17T06:41:38.723;599616690356610304;11867.724;55
2024-09-17T06:41:38.731;599616690364285952;11875.399;65
2024-09-17T06:41:38.739;599616690371961728;11883.075;77
2024-09-17T06:41:38.746;599616690379637376;11890.752;82
2024-09-17T06:41:38.754;599616690387313024;11898.427;91
2024-09-17T06:41:38.762;599616690394988800;11906.103;101
2024-09-17T06:41:38.769;599616690402664448;11913.778;108
2024-09-17T06:41:38.777;599616690410340096;11921.454;116
2024-09-17T06:41:38.785;599616690418015872;11929.129;123
2024-09-17T06:41:38.792;599616690425691520;11936.805;132
2024-09-17T06:41:38.800;599616690433367168;11944.48;142
2024-09-17T06:41:38.808;599616690441042944;11952.156;149
2024-09-17T06:41:38.815;599616690448718592;11959.833;161
2024-09-17T06:41:38.823;599616690456394368;11967.509;174
2024-09-17T06:41:38.831;599616690464070016;11975.184;181
2024-09-17T06:41:38.838;599616690471745664;11982.859;186
2024-09-17T06:41:38.846;599616690479421440;11990.535;186
2024-09-17T06:41:38.854;599616690487097088;11998.211;181
2024-09-17T06:41:38.861;599616690494772736;12005.886;178
2024-09-17T06:41:38.869;599616690502448512;12013.562;171
2024-09-17T06:41:38.877;599616690510124160;12021.237;159
2024-09-17T06:41:38.884;599616690517799808;12028.914;140
2024-09-17T06:41:38.892;599616690525475584;12036.59;113
2024-09-17T06:41:38.900;599616690533151232;12044.265;84
2024-09-17T06:41:38.907;599616690540827008;12051.94;58
2024-09-17T06:41:38.915;599616690548502656;12059.616;31
2024-09-17T06:41:38.923;599616690556178304;12067.292;9
2024-09-17T06:41:38.930;599616690563854080;12074.968;-7
2024-09-17T06:41:38.938;599616690571529728;12082.643;-21
2024-09-17T06:41:38.946;599616690579205376;12090.319;-29
2024-09-17T06:41:38.953;599616690586881152;12097.995;-26
2024-09-17T06:41:38.961;599616690594556800;12105.671;-21
2024-09-17T06:41:38.969;599616690602232576;12113.347;-16
2024-09-17T06:41:38.977;599616690609908224;12121.021;-12
2024-09-17T06:41:38.984;599616690617583872;12128.697;-7
2024-09-17T06:41:38.992;599616690625259648;12136.373;2
2024-09-17T06:41:39.000;599616690632935296;12144.049;14
2024-09-17T06:41:39.007;599616690640610944;12151.724;19
2024-09-17T06:41:39.015;599616690648286720;12159.4;21
2024-09-17T06:41:39.023;599616690655962368;12167.076;26
2024-09-17T06:41:39.030;599616690663638016;12174.752;26
2024-09-17T06:41:39.038;599616690671313792;12182.428;29
2024-09-17T06:41:39.046;599616690678989440;12190.104;29
2024-09-17T06:41:39.053;599616690686665216;12197.778;29
2024-09-17T06:41:39.061;599616690694340864;12205.454;29
2024-09-17T06:41:39.069;599616690702016512;12213.13;24
2024-09-17T06:41:39.076;599616690709692288;12220.806;21
2024-09-17T06:41:39.084;599616690717367936;12228.481;19
2024-09-17T06:41:39.092;599616690725043584;12236.157;16
2024-09-17T06:41:39.099;599616690732719360;12243.833;19
2024-09-17T06:41:39.107;599616690740395008;12251.509;21
2024-09-17T06:41:39.115;599616690748070784;12259.185;21
2024-09-17T06:41:39.122;599616690755746432;12266.86;21
2024-09-17T06:41:39.130;599616690763422080;12274.535;21
2024-09-17T06:41:39.138;599616690771097856;12282.211;24
2024-09-17T06:41:39.145;599616690778773504;12289.888;21
2024-09-17T06:41:39.153;599616690786449152;12297.563;24
2024-09-17T06:41:39.161;599616690794124928;12305.238;26
2024-09-17T06:41:39.168;599616690801800576;12312.914;26
2024-09-17T06:41:39.176;599616690809476376;12320.59;26
2024-09-17T06:41:39.184;599616690817151616;12328.266;29
2024-09-17T06:41:39.191;599616690824826880;12335.94;31
2024-09-17T06:41:39.199;599616690832502144;12343.615;33
2024-09-17T06:41:39.207;599616690840177408;12351.291;36
2024-09-17T06:41:39.214;599616690847852672;12358.966;36
2024-09-17T06:41:39.222;599616690855528064;12366.642;36
2024-09-17T06:41:39.230;599616690863203328;12374.317;36
2024-09-17T06:41:39.237;599616690870878592;12381.992;36
2024-09-17T06:41:39.245;599616690878553856;12389.668;41
2024-09-17T06:41:39.253;599616690886229120;12397.343;41
2024-09-17T06:41:39.261;599616690893904384;12405.018;41
2024-09-17T06:41:39.268;599616690901579648;12412.693;43
2024-09-17T06:41:39.276;599616690909254912;12420.368;45
2024-09-17T06:41:39.284;599616690916930176;12428.044;45
2024-09-17T06:41:39.291;599616690924605440;12435.719;48
2024-09-17T06:41:39.299;599616690932280832;12443.395;53
2024-09-17T06:41:39.307;599616690939956096;12451.07;53
2024-09-17T06:41:39.314;599616690947631360;12458.745;50
2024-09-17T06:41:39.322;599616690955306624;12466.42;53
2024-09-17T06:41:39.330;599616690962981888;12474.096;55
2024-09-17T06:41:39.337;599616690970657152;12481.7705;53
2024-09-17T06:41:39.345;599616690978332416;12489.446;55
2024-09-17T06:41:39.353;599616690986007680;12497.121;67
2024-09-17T06:41:39.360;599616690993682944;12504.796;87
2024-09-17T06:41:39.368;599616691001358208;12512.472;108
2024-09-17T06:41:39.376;599616691009033600;12520.146;108
2024-09-17T06:41:39.383;599616691016708864;12527.823;82
2024-09-17T06:41:39.391;599616691024384128;12535.498;53
2024-09-17T06:41:39.399;599616691032059392;12543.173;43
2024-09-17T06:41:39.406;599616691039734656;12550.849;45
2024-09-17T06:41:39.414;599616691047409920;12558.523;43
2024-09-17T06:41:39.422;599616691055085184;12566.198;36
2024-09-17T06:41:39.429;599616691062760448;12573.874;33
2024-09-17T06:41:39.437;599616691070435712;12581.549;36
2024-09-17T06:41:39.445;599616691078110976;12589.225;33
2024-09-17T06:41:39.452;599616691085786368;12596.899;36
2024-09-17T06:41:39.460;599616691093461632;12604.576;43
2024-09-17T06:41:39.468;599616691101136896;12612.251;45
2024-09-17T06:41:39.475;599616691108812160;12619.926;43
2024-09-17T06:41:39.483;599616691116487424;12627.602;55
2024-09-17T06:41:39.491;599616691124162688;12635.276;159
2024-09-17T06:41:39.498;599616691131837952;12642.951;473
2024-09-17T06:41:39.506;599616691139513216;12650.627;928
2024-09-17T06:41:39.514;599616691147188480;12658.302;969
2024-09-17T06:41:39.521;599616691154863744;12665.977;256
2024-09-17T06:41:39.529;599616691162539136;12673.652;-348
2024-09-17T06:41:39.537;599616691170214400;12681.327;-140
2024-09-17T06:41:39.545;599616691177889664;12689.004;96
2024-09-17T06:41:39.552;599616691185564928;12696.679;-65
2024-09-17T06:41:39.560;599616691193240192;12704.3545;-72
2024-09-17T06:41:39.568;599616691200915456;12712.029;43
2024-09-17T06:41:39.575;599616691208590720;12719.704;-2
2024-09-17T06:41:39.583;599616691216265984;12727.38;-33
2024-09-17T06:41:39.591;599616691223941248;12735.055;16
2024-09-17T06:41:39.598;599616691231616512;12742.7295;24
2024-09-17T06:41:39.606;599616691239291904;12750.405;12
2024-09-17T06:41:39.614;599616691246967168;12758.08;29
2024-09-17T06:41:39.621;599616691254642432;12765.757;41
2024-09-17T06:41:39.629;599616691262317696;12773.432;43
2024-09-17T06:41:39.637;599616691269992960;12781.106;55
2024-09-17T06:41:39.644;599616691277668224;12788.782;72
2024-09-17T06:41:39.652;599616691285343488;12796.457;77
2024-09-17T06:41:39.660;599616691293018752;12804.133;84
2024-09-17T06:41:39.667;599616691300694016;12811.808;96
2024-09-17T06:41:39.675;599616691308369408;12819.482;103
2024-09-17T06:41:39.683;599616691316044672;12827.158;113
2024-09-17T06:41:39.690;599616691323719936;12834.833;128
2024-09-17T06:41:39.698;599616691331395200;12842.508;140
2024-09-17T06:41:39.706;599616691339070464;12850.185;149
2024-09-17T06:41:39.713;599616691346745728;12857.859;161
2024-09-17T06:41:39.721;599616691354420992;12865.535;174
2024-09-17T06:41:39.729;599616691362096256;12873.21;186
2024-09-17T06:41:39.736;599616691369771597;12880.885;198
2024-09-17T06:41:39.744;599616691377447296;12888.561;205
2024-09-17T06:41:39.752;599616691385122944;12896.236;205
2024-09-17T06:41:39.759;599616691392798720;12903.912;205
2024-09-17T06:41:39.767;599616691400474368;12911.588;200
2024-09-17T06:41:39.775;599616691408150016;12919.264;190
2024-09-17T06:41:39.782;599616691415825792;12926.939;176
2024-09-17T06:41:39.790;599616691423501440;12934.615;149
2024-09-17T06:41:39.798;599616691431177216;12942.291;118
2024-09-17T06:41:39.805;599616691438852864;12949.967;87
2024-09-17T06:41:39.813;599616691446528512;12957.642;58
2024-09-17T06:41:39.821;599616691454204288;12965.317;26
2024-09-17T06:41:39.828;599616691461879936;12972.993;2
2024-09-17T06:41:39.836;599616691469555584;12980.67;-14
2024-09-17T06:41:39.844;599616691477231360;12988.346;-29
2024-09-17T06:41:39.852;599616691484907008;12996.0205;-36
2024-09-17T06:41:39.859;599616691492582784;13003.696;-36
2024-09-17T06:41:39.867;599616691500258432;13011.372;-33
2024-09-17T06:41:39.875;599616691507934080;13019.048;-29
2024-09-17T06:41:39.882;599616691515609856;13026.724;-19
2024-09-17T06:41:39.890;599616691523285504;13034.398;-14
2024-09-17T06:41:39.898;599616691530961152;13042.074;-9
2024-09-17T06:41:39.905;599616691538636928;13049.751;0
2024-09-17T06:41:39.913;599616691546312576;13057.427;7
2024-09-17T06:41:39.921;599616691553988224;13065.102;12
2024-09-17T06:41:39.928;599616691561664000;13072.777;14
2024-09-17T06:41:39.936;599616691569339648;13080.453;19
2024-09-17T06:41:39.944;599616691577015424;13088.129;24
2024-09-17T06:41:39.951;599616691584691072;13095.805;21
2024-09-17T06:41:39.959;599616691592366720;13103.48;19
2024-09-17T06:41:39.967;599616691600042496;13111.155;21
2024-09-17T06:41:39.974;599616691607718144;13118.832;21
2024-09-17T06:41:39.982;599616691615393792;13126.508;19
2024-09-17T06:41:39.990;599616691623069568;13134.184;19
2024-09-17T06:41:39.997;599616691630745216;13141.858;19
2024-09-17T06:41:40.005;599616691638420864;13149.534;14
2024-09-17T06:41:40.013;599616691646096640;13157.21;9
2024-09-17T06:41:40.020;599616691653772288;13164.886;9
2024-09-17T06:41:40.028;599616691661448064;13172.562;14
2024-09-17T06:41:40.036;599616691669123712;13180.238;14
2024-09-17T06:41:40.043;599616691676799360;13187.913;14
2024-09-17T06:41:40.051;599616691684475136;13195.589;9
2024-09-17T06:41:40.059;599616691692150784;13203.265;9
2024-09-17T06:41:40.066;599616691699826432;13210.94;14
2024-09-17T06:41:40.074;599616691707502208;13218.615;14
2024-09-17T06:41:40.082;599616691715177856;13226.291;14
2024-09-17T06:41:40.089;599616691722853632;13233.967;16
2024-09-17T06:41:40.097;599616691730529280;13241.643;14
2024-09-17T06:41:40.105;599616691738204928;13249.319;14
2024-09-17T06:41:40.112;599616691745880704;13256.995;16
2024-09-17T06:41:40.120;599616691753556352;13264.67;19
2024-09-17T06:41:40.128;599616691761232000;13272.346;19
2024-09-17T06:41:40.136;599616691768907776;13280.021;21
2024-09-17T06:41:40.143;599616691776583424;13287.697;21
2024-09-17T06:41:40.151;599616691784259072;13295.372;19
2024-09-17T06:41:40.159;599616691791934848;13303.048;16
2024-09-17T06:41:40.166;599616691799610496;13310.724;14
2024-09-17T06:41:40.174;599616691807286272;13318.4;14
2024-09-17T06:41:40.182;599616691814961920;13326.076;19
2024-09-17T06:41:40.189;599616691822637568;13333.751;19
2024-09-17T06:41:40.197;599616691830313344;13341.427;19
2024-09-17T06:41:40.205;599616691837988992;13349.103;19
2024-09-17T06:41:40.212;599616691845664640;13356.778;16
2024-09-17T06:41:40.220;599616691853340416;13364.454;12
2024-09-17T06:41:40.228;599616691861016064;13372.129;9
2024-09-17T06:41:40.235;599616691868691840;13379.806;9
2024-09-17T06:41:40.243;599616691876367488;13387.481;12
2024-09-17T06:41:40.251;599616691884043136;13395.157;12
2024-09-17T06:41:40.258;599616691891718912;13402.833;9
2024-09-17T06:41:40.266;599616691899394560;13410.508;9
2024-09-17T06:41:40.274;599616691907070208;13418.184;19
2024-09-17T06:41:40.281;599616691914745984;13425.859;38
2024-09-17T06:41:40.289;599616691922421632;13433.535;58
2024-09-17T06:41:40.297;599616691930097336;13441.211;74
2024-09-17T06:41:40.304;599616691937772928;13448.887;72
2024-09-17T06:41:40.312;599616691945448576;13456.5625;41
2024-09-17T06:41:40.320;599616691953124352;13464.238;7
2024-09-17T06:41:40.327;599616691960800000;13471.914;-4
2024-09-17T06:41:40.335;599616691968475648;13479.589;-9
2024-09-17T06:41:40.343;599616691976151424;13487.265;-12
2024-09-17T06:41:40.350;599616691983827072;13494.94;-14
2024-09-17T06:41:40.358;599616691991502848;13502.616;-9
2024-09-17T06:41:40.366;599616691999178496;13510.292;-7
2024-09-17T06:41:40.373;599616692006854144;13517.968;-4
2024-09-17T06:41:40.381;599616692014529920;13525.644;0
2024-09-17T06:41:40.389;599616692022205568;13533.319;2
2024-09-17T06:41:40.396;599616692029881216;13540.995;2
2024-09-17T06:41:40.404;599616692037556992;13548.671;2
2024-09-17T06:41:40.412;599616692045232640;13556.346;24
2024-09-17T06:41:40.420;599616692052908416;13564.021;149
2024-09-17T06:41:40.427;599616692060584064;13571.697;512
2024-09-17T06:41:40.435;599616692068259712;13579.374;957
2024-09-17T06:41:40.443;599616692075935488;13587.05;865
2024-09-17T06:41:40.450;599616692083611136;13594.725;67
2024-09-17T06:41:40.458;599616692091286784;13602.4;-415
2024-09-17T06:41:40.466;599616692098962560;13610.076;-123
2024-09-17T06:41:40.473;599616692106638208;13617.752;53
2024-09-17T06:41:40.481;599616692114313856;13625.428;-125
2024-09-17T06:41:40.489;599616692121989632;13633.103;-101
2024-09-17T06:41:40.496;599616692129665280;13640.778;0
2024-09-17T06:41:40.504;599616692137341056;13648.455;-60
2024-09-17T06:41:40.512;599616692145016704;13656.131;-77
2024-09-17T06:41:40.519;599616692152692352;13663.806;-24
2024-09-17T06:41:40.527;599616692160368128;13671.481;-19
2024-09-17T06:41:40.535;599616692168043776;13679.157;-21
2024-09-17T06:41:40.542;599616692175719424;13686.833;2
2024-09-17T06:41:40.550;599616692183395200;13694.509;14
2024-09-17T06:41:40.558;599616692191070848;13702.185;14
2024-09-17T06:41:40.565;599616692198746496;13709.859;26
2024-09-17T06:41:40.573;599616692206422272;13717.536;33
2024-09-17T06:41:40.581;599616692214097920;13725.212;36
2024-09-17T06:41:40.588;599616692221773696;13732.888;45
2024-09-17T06:41:40.596;599616692229449344;13740.5625;53
2024-09-17T06:41:40.604;599616692237124992;13748.238;55
2024-09-17T06:41:40.611;599616692244800768;13755.914;65
2024-09-17T06:41:40.619;599616692252476416;13763.59;74
2024-09-17T06:41:40.627;599616692260152064;13771.266;87
2024-09-17T06:41:40.634;599616692267827840;13778.942;103
2024-09-17T06:41:40.642;599616692275503488;13786.617;120
2024-09-17T06:41:40.650;599616692283179264;13794.293;137
2024-09-17T06:41:40.657;599616692290854912;13801.969;154
2024-09-17T06:41:40.665;599616692298530560;13809.645;164
2024-09-17T06:41:40.673;599616692306206336;13817.319;171
2024-09-17T06:41:40.680;599616692313881984;13824.995;178
2024-09-17T06:41:40.688;599616692321557632;13832.671;174
2024-09-17T06:41:40.696;599616692329233408;13840.347;164
2024-09-17T06:41:40.704;599616692336909056;13848.023;159
2024-09-17T06:41:40.711;599616692344584704;13855.698;149
2024-09-17T06:41:40.719;599616692352260480;13863.374;123
2024-09-17T06:41:40.727;599616692359936128;13871.05;91
2024-09-17T06:41:40.734;599616692367611904;13878.726;53
2024-09-17T06:41:40.742;599616692375287552;13886.401;7
2024-09-17T06:41:40.750;599616692382963200;13894.076;-26
2024-09-17T06:41:40.757;599616692390638976;13901.752;-43
2024-09-17T06:41:40.765;599616692398314624;13909.429;-58
2024-09-17T06:41:40.773;599616692405990272;13917.1045;-65
2024-09-17T06:41:40.780;599616692413666048;13924.78;-65
2024-09-17T06:41:40.788;599616692421341696;13932.455;-70
2024-09-17T06:41:40.796;599616692429017472;13940.131;-77
2024-09-17T06:41:40.803;599616692436693120;13947.807;-77
2024-09-17T06:41:40.811;599616692444368768;13955.482;-65
2024-09-17T06:41:40.819;599616692452044544;13963.158;-50
2024-09-17T06:41:40.826;599616692459720192;13970.833;-48
2024-09-17T06:41:40.834;599616692467395840;13978.51;-50
2024-09-17T06:41:40.842;599616692475071616;13986.186;-43
2024-09-17T06:41:40.849;599616692482747264;13993.861;-31
2024-09-17T06:41:40.857;599616692490423075;14001.537;-24
2024-09-17T06:41:40.865;599616692498098688;14009.212;-24
2024-09-17T06:41:40.872;599616692505774336;14016.888;-24
2024-09-17T06:41:40.880;599616692513450112;14024.563;-19
2024-09-17T06:41:40.888;599616692521125760;14032.239;-19
2024-09-17T06:41:40.895;599616692528801408;14039.914;-26
2024-09-17T06:41:40.903;599616692536477184;14047.591;-26
2024-09-17T06:41:40.911;599616692544152832;14055.267;-26
2024-09-17T06:41:40.918;599616692551828608;14062.942;-36
2024-09-17T06:41:40.926;599616692559504256;14070.618;-41
2024-09-17T06:41:40.934;599616692567179904;14078.294;-38
2024-09-17T06:41:40.941;599616692574855680;14085.969;-31
2024-09-17T06:41:40.949;599616692582531328;14093.645;-31
2024-09-17T06:41:40.957;599616692590206976;14101.32;-48
2024-09-17T06:41:40.964;599616692597882752;14108.997;-58
2024-09-17T06:41:40.972;599616692605558400;14116.672;-45
2024-09-17T06:41:40.980;599616692613234176;14124.348;-38
2024-09-17T06:41:40.988;599616692620909824;14132.023;-45
2024-09-17T06:41:40.995;599616692628585472;14139.699;-41
2024-09-17T06:41:41.003;599616692636261248;14147.375;-36
2024-09-17T06:41:41.011;599616692643936896;14155.051;-38
2024-09-17T06:41:41.018;599616692651612544;14162.726;-36
2024-09-17T06:41:41.026;599616692659288320;14170.401;-31
2024-09-17T06:41:41.034;599616692666963968;14178.078;-29
2024-09-17T06:41:41.041;599616692674639616;14185.754;-21
2024-09-17T06:41:41.049;599616692682315392;14193.429;-19
2024-09-17T06:41:41.057;599616692689991040;14201.1045;-31
2024-09-17T06:41:41.064;599616692697666816;14208.78;-36
2024-09-17T06:41:41.072;599616692705342464;14216.456;-21
2024-09-17T06:41:41.080;599616692713018112;14224.132;-12
2024-09-17T06:41:41.087;599616692720693888;14231.808;-14
2024-09-17T06:41:41.095;599616692728369536;14239.482;-21
2024-09-17T06:41:41.103;599616692736045184;14247.159;-21
2024-09-17T06:41:41.110;599616692743720960;14254.835;-14
2024-09-17T06:41:41.118;599616692751396608;14262.511;-9
2024-09-17T06:41:41.126;599616692759072256;14270.186;-4
2024-09-17T06:41:41.133;599616692766748032;14277.861;16
2024-09-17T06:41:41.141;599616692774423680;14285.537;50
2024-09-17T06:41:41.149;599616692782099456;14293.213;60
2024-09-17T06:41:41.156;599616692789775104;14300.889;24
2024-09-17T06:41:41.164;599616692797450752;14308.564;-4
2024-09-17T06:41:41.172;599616692805126528;14316.24;-9
2024-09-17T06:41:41.179;599616692812802176;14323.916;-12
2024-09-17T06:41:41.187;599616692820477824;14331.592;-19
2024-09-17T06:41:41.195;599616692828153600;14339.268;-24
2024-09-17T06:41:41.202;599616692835829248;14346.942;-26
2024-09-17T06:41:41.210;599616692843505024;14354.618;-26
2024-09-17T06:41:41.218;599616692851180672;14362.294;-21
2024-09-17T06:41:41.225;599616692858856320;14369.97;-19
2024-09-17T06:41:41.233;599616692866532096;14377.646;-19
2024-09-17T06:41:41.241;599616692874207744;14385.321;-12
2024-09-17T06:41:41.248;599616692881883392;14392.997;-12
2024-09-17T06:41:41.256;599616692889559168;14400.673;21
2024-09-17T06:41:41.264;599616692897234816;14408.349;203
2024-09-17T06:41:41.272;599616692904910464;14416.023;618
2024-09-17T06:41:41.279;599616692912586240;14423.699;1061
2024-09-17T06:41:41.287;599616692920261888;14431.375;862
2024-09-17T06:41:41.295;599616692927937664;14439.051;-41
2024-09-17T06:41:41.302;599616692935613312;14446.728;-493
2024-09-17T06:41:41.310;599616692943288960;14454.403;-132
2024-09-17T06:41:41.318;599616692950964736;14462.078;24
2024-09-17T06:41:41.325;599616692958640384;14469.754;-159
2024-09-17T06:41:41.333;599616692966316032;14477.43;-103
2024-09-17T06:41:41.341;599616692973991808;14485.105;-7
2024-09-17T06:41:41.348;599616692981667456;14492.78;-79
2024-09-17T06:41:41.356;599616692989343232;14500.456;-84
2024-09-17T06:41:41.364;599616692997018880;14508.133;-19
2024-09-17T06:41:41.371;599616693004694528;14515.809;-24
2024-09-17T06:41:41.379;599616693012370304;14523.484;-31
2024-09-17T06:41:41.387;599616693020045952;14531.16;-4
2024-09-17T06:41:41.394;599616693027721600;14538.835;2
2024-09-17T06:41:41.402;599616693035397376;14546.511;2
2024-09-17T06:41:41.410;599616693043073024;14554.187;21
2024-09-17T06:41:41.417;599616693050748814;14561.862;41
2024-09-17T06:41:41.425;599616693058424064;14569.537;45
2024-09-17T06:41:41.433;599616693066099328;14577.214;55
2024-09-17T06:41:41.440;599616693073774592;14584.889;72
2024-09-17T06:41:41.448;599616693081449856;14592.563;74
2024-09-17T06:41:41.456;599616693089125120;14600.239;77
2024-09-17T06:41:41.463;599616693096800512;14607.914;96
2024-09-17T06:41:41.471;599616693104475776;14615.589;120
2024-09-17T06:41:41.479;599616693112151040;14623.265;135
2024-09-17T06:41:41.486;599616693119826304;14630.939;147
2024-09-17T06:41:41.494;599616693127501568;14638.615;171
2024-09-17T06:41:41.502;599616693135176832;14646.29;193
2024-09-17T06:41:41.509;599616693142852096;14653.965;203
2024-09-17T06:41:41.517;599616693150527360;14661.642;210
2024-09-17T06:41:41.525;599616693158202624;14669.316;217
2024-09-17T06:41:41.532;599616693165877888;14676.992;217
2024-09-17T06:41:41.540;599616693173553280;14684.667;219
2024-09-17T06:41:41.548;599616693181228544;14692.342;215
2024-09-17T06:41:41.556;599616693188903808;14700.018;190
2024-09-17T06:41:41.563;599616693196579072;14707.692;157
2024-09-17T06:41:41.571;599616693204254336;14715.367;116
2024-09-17T06:41:41.579;599616693211929600;14723.043;82
2024-09-17T06:41:41.586;599616693219604864;14730.718;65
2024-09-17T06:41:41.594;599616693227280128;14738.395;58
2024-09-17T06:41:41.602;599616693234955392;14746.069;48
2024-09-17T06:41:41.609;599616693242630656;14753.744;41
2024-09-17T06:41:41.617;599616693250306048;14761.42;50
2024-09-17T06:41:41.625;599616693257981312;14769.095;72
2024-09-17T06:41:41.632;599616693265656576;14776.7705;77
2024-09-17T06:41:41.640;599616693273331840;14784.445;58
2024-09-17T06:41:41.648;599616693281007104;14792.12;31
2024-09-17T06:41:41.655;599616693288682368;14799.796;19
2024-09-17T06:41:41.663;599616693296357632;14807.471;26
2024-09-17T06:41:41.671;599616693304032896;14815.1455;36
2024-09-17T06:41:41.678;599616693311708160;14822.822;36
2024-09-17T06:41:41.686;599616693319383424;14830.497;31
2024-09-17T06:41:41.694;599616693327058816;14838.173;24
2024-09-17T06:41:41.701;599616693334734080;14845.848;14
2024-09-17T06:41:41.709;599616693342409344;14853.523;14
2024-09-17T06:41:41.717;599616693350084608;14861.198;19
2024-09-17T06:41:41.724;599616693357759872;14868.873;21
2024-09-17T06:41:41.732;599616693365435136;14876.549;19
2024-09-17T06:41:41.740;599616693373110400;14884.224;19
2024-09-17T06:41:41.747;599616693380785664;14891.898;21
2024-09-17T06:41:41.755;599616693388460928;14899.575;24
2024-09-17T06:41:41.763;599616693396136192;14907.25;24
2024-09-17T06:41:41.770;599616693403811584;14914.926;29
2024-09-17T06:41:41.778;599616693411486848;14922.601;26
2024-09-17T06:41:41.786;599616693419162112;14930.275;21
2024-09-17T06:41:41.793;599616693426837376;14937.951;19
2024-09-17T06:41:41.801;599616693434512640;14945.626;16
2024-09-17T06:41:41.809;599616693442187904;14953.302;14
2024-09-17T06:41:41.816;599616693449863168;14960.977;12
2024-09-17T06:41:41.824;599616693457538432;14968.651;12
2024-09-17T06:41:41.832;599616693465213696;14976.328;9
2024-09-17T06:41:41.840;599616693472888960;14984.003;9
2024-09-17T06:41:41.847;599616693480564352;14991.678;7
2024-09-17T06:41:41.855;599616693488239616;14999.354;9
2024-09-17T06:41:41.863;599616693495914880;15007.028;12
2024-09-17T06:41:41.870;599616693503590144;15014.704;9
2024-09-17T06:41:41.878;599616693511265408;15022.379;14
2024-09-17T06:41:41.886;599616693518940672;15030.054;19
2024-09-17T06:41:41.893;599616693526615936;15037.7295;21
2024-09-17T06:41:41.901;599616693534291200;15045.404;26
2024-09-17T06:41:41.909;599616693541966464;15053.081;31
2024-09-17T06:41:41.916;599616693549641728;15060.756;36
2024-09-17T06:41:41.924;599616693557317120;15068.431;41
2024-09-17T06:41:41.932;599616693564992384;15076.106;48
2024-09-17T06:41:41.939;599616693572667648;15083.781;48
2024-09-17T06:41:41.947;599616693580342912;15091.456;50
2024-09-17T06:41:41.955;599616693588018176;15099.132;50
2024-09-17T06:41:41.962;599616693595693440;15106.807;48
2024-09-17T06:41:41.970;599616693603368704;15114.482;53
2024-09-17T06:41:41.978;599616693611044035;15122.157;77
2024-09-17T06:41:41.985;599616693618719744;15129.833;103
2024-09-17T06:41:41.993;599616693626395392;15137.51;118
2024-09-17T06:41:42.001;599616693634071168;15145.186;101
2024-09-17T06:41:42.008;599616693641746816;15152.86;65
2024-09-17T06:41:42.016;599616693649422464;15160.536;45
2024-09-17T06:41:42.024;599616693657098240;15168.212;43
2024-09-17T06:41:42.031;599616693664773888;15175.888;41
2024-09-17T06:41:42.039;599616693672449664;15183.5625;31
2024-09-17T06:41:42.047;599616693680125312;15191.238;24
2024-09-17T06:41:42.054;599616693687800960;15198.915;26
2024-09-17T06:41:42.062;599616693695476736;15206.591;29
2024-09-17T06:41:42.070;599616693703152384;15214.267;24
2024-09-17T06:41:42.077;599616693710828032;15221.941;21
2024-09-17T06:41:42.085;599616693718503808;15229.617;24
2024-09-17T06:41:42.093;599616693726179456;15237.293;24
2024-09-17T06:41:42.100;599616693733855232;15244.969;26
2024-09-17T06:41:42.108;599616693741530880;15252.645;82
2024-09-17T06:41:42.116;599616693749206528;15260.319;306
2024-09-17T06:41:42.123;599616693756882304;15267.996;763
2024-09-17T06:41:42.131;599616693764557952;15275.672;1140
2024-09-17T06:41:42.139;599616693772233600;15283.348;763
2024-09-17T06:41:42.147;599616693779909376;15291.023;-145
2024-09-17T06:41:42.154;599616693787585024;15298.698;-372
2024-09-17T06:41:42.162;599616693795260672;15306.374;4
2024-09-17T06:41:42.170;599616693802936448;15314.05;9
2024-09-17T06:41:42.177;599616693810612096;15321.726;-128
2024-09-17T06:41:42.185;599616693818287872;15329.402;-14
2024-09-17T06:41:42.193;599616693825963520;15337.077;24
2024-09-17T06:41:42.200;599616693833639168;15344.753;-38
2024-09-17T06:41:42.208;599616693841314944;15352.429;-9
2024-09-17T06:41:42.216;599616693848990592;15360.1045;29
2024-09-17T06:41:42.223;599616693856666240;15367.78;16
2024-09-17T06:41:42.231;599616693864342016;15375.455;24
2024-09-17T06:41:42.239;599616693872017664;15383.131;45
2024-09-17T06:41:42.246;599616693879693312;15390.807;50
2024-09-17T06:41:42.254;599616693887369088;15398.483;55
2024-09-17T06:41:42.262;599616693895044736;15406.158;67
2024-09-17T06:41:42.269;599616693902720512;15413.834;79
2024-09-17T06:41:42.277;599616693910396160;15421.51;89
2024-09-17T06:41:42.285;599616693918071808;15429.186;99
2024-09-17T06:41:42.292;599616693925747584;15436.861;106
2024-09-17T06:41:42.300;599616693933423232;15444.537;116
2024-09-17T06:41:42.308;599616693941098880;15452.212;130
2024-09-17T06:41:42.315;599616693948774656;15459.888;140
2024-09-17T06:41:42.323;599616693956450304;15467.564;154
2024-09-17T06:41:42.331;599616693964126080;15475.24;171
2024-09-17T06:41:42.338;599616693971801728;15482.915;186
2024-09-17T06:41:42.346;599616693979477376;15490.591;203
2024-09-17T06:41:42.354;599616693987153152;15498.267;217
2024-09-17T06:41:42.361;599616693994828800;15505.942;229
2024-09-17T06:41:42.369;599616694002504448;15513.618;239
2024-09-17T06:41:42.377;599616694010180224;15521.294;239
2024-09-17T06:41:42.384;599616694017855872;15528.969;236
2024-09-17T06:41:42.392;599616694025531520;15536.6455;229
2024-09-17T06:41:42.400;599616694033207296;15544.321;215
2024-09-17T06:41:42.407;599616694040882944;15551.997;190
2024-09-17T06:41:42.415;599616694048558720;15559.672;157
2024-09-17T06:41:42.423;599616694056234368;15567.348;116
2024-09-17T06:41:42.431;599616694063910016;15575.023;72
2024-09-17T06:41:42.438;599616694071585792;15582.699;33
2024-09-17T06:41:42.446;599616694079261440;15590.375;0
2024-09-17T06:41:42.454;599616694086937088;15598.051;-24
2024-09-17T06:41:42.461;599616694094612864;15605.727;-38
2024-09-17T06:41:42.469;599616694102288512;15613.402;-41
2024-09-17T06:41:42.477;599616694109964288;15621.078;-41
2024-09-17T06:41:42.484;599616694117639936;15628.754;-45
2024-09-17T06:41:42.492;599616694125315584;15636.429;-55
2024-09-17T06:41:42.500;599616694132991360;15644.1045;-58
2024-09-17T06:41:42.507;599616694140667008;15651.78;-48
2024-09-17T06:41:42.515;599616694148342656;15659.456;-33
2024-09-17T06:41:42.523;599616694156018432;15667.133;-21
2024-09-17T06:41:42.530;599616694163694080;15674.808;-19
2024-09-17T06:41:42.538;599616694171369774;15682.483;-24
2024-09-17T06:41:42.546;599616694179045376;15690.159;-19
2024-09-17T06:41:42.553;599616694186721024;15697.835;-7
2024-09-17T06:41:42.561;599616694194396800;15705.51;7
2024-09-17T06:41:42.569;599616694202072448;15713.186;14
2024-09-17T06:41:42.576;599616694209748096;15720.861;16
2024-09-17T06:41:42.584;599616694217423872;15728.538;12
2024-09-17T06:41:42.592;599616694225099520;15736.214;9
2024-09-17T06:41:42.599;599616694232775296;15743.89;12
2024-09-17T06:41:42.607;599616694240450944;15751.564;14
2024-09-17T06:41:42.615;599616694248126592;15759.24;12
2024-09-17T06:41:42.622;599616694255802368;15766.916;12
2024-09-17T06:41:42.630;599616694263478016;15774.592;9
2024-09-17T06:41:42.638;599616694271153664;15782.267;9
2024-09-17T06:41:42.645;599616694278829440;15789.942;12
2024-09-17T06:41:42.653;599616694286505088;15797.619;14
2024-09-17T06:41:42.661;599616694294180864;15805.295;14
2024-09-17T06:41:42.668;599616694301856512;15812.971;14
2024-09-17T06:41:42.676;599616694309532160;15820.6455;12
2024-09-17T06:41:42.684;599616694317207936;15828.321;12
2024-09-17T06:41:42.691;599616694324883584;15835.997;14
2024-09-17T06:41:42.699;599616694332559232;15843.673;14
2024-09-17T06:41:42.707;599616694340235008;15851.349;14
2024-09-17T06:41:42.715;599616694347910656;15859.023;14
2024-09-17T06:41:42.722;599616694355586304;15866.7;14
2024-09-17T06:41:42.730;599616694363262080;15874.376;16
2024-09-17T06:41:42.738;599616694370937728;15882.052;21
2024-09-17T06:41:42.745;599616694378613504;15889.728;24
2024-09-17T06:41:42.753;599616694386289152;15897.402;24
2024-09-17T06:41:42.761;599616694393964800;15905.078;26
2024-09-17T06:41:42.768;599616694401640576;15912.754;29
2024-09-17T06:41:42.776;599616694409316224;15920.43;31
2024-09-17T06:41:42.784;599616694416991872;15928.1045;31
2024-09-17T06:41:42.791;599616694424667648;15935.781;33
2024-09-17T06:41:42.799;599616694432343296;15943.457;36
2024-09-17T06:41:42.807;599616694440018944;15951.133;36
2024-09-17T06:41:42.814;599616694447694720;15958.809;36
2024-09-17T06:41:42.822;599616694455370368;15966.484;38
2024-09-17T06:41:42.830;599616694463046144;15974.159;41
2024-09-17T06:41:42.837;599616694470721792;15981.835;41
2024-09-17T06:41:42.845;599616694478397440;15989.511;45
2024-09-17T06:41:42.853;599616694486073216;15997.1875;60
2024-09-17T06:41:42.860;599616694493748864;16004.862;82
2024-09-17T06:41:42.868;599616694501424512;16012.538;101
2024-09-17T06:41:42.876;599616694509100288;16020.214;101
2024-09-17T06:41:42.883;599616694516775936;16027.89;72
2024-09-17T06:41:42.891;599616694524451712;16035.565;43
2024-09-17T06:41:42.899;599616694532127360;16043.241;38
2024-09-17T06:41:42.906;599616694539803008;16050.916;41
2024-09-17T06:41:42.914;599616694547478784;16058.592;33
2024-09-17T06:41:42.922;599616694555154432;16066.269;26
2024-09-17T06:41:42.929;599616694562830080;16073.944;29
2024-09-17T06:41:42.937;599616694570505856;16081.619;29
