Phone timestamp;sensor timestamp [ns];timestamp [ms];ecg [uV]
2024-09-16T19:00:49.535;599620866748378112;0.0;2805
2024-09-16T19:00:49.542;599620866756070400;7.692288;3239
2024-09-16T19:00:49.550;599620866763762688;15.384576;3642
2024-09-16T19:00:49.558;599620866771454976;23.076864;3894
2024-09-16T19:00:49.565;599620866779147392;30.76928;4160
2024-09-16T19:00:49.573;599620866786839680;38.461567;4433
2024-09-16T19:00:49.581;599620866794531968;46.153854;4669
2024-09-16T19:00:49.588;599620866802224256;53.846146;4928
2024-09-16T19:00:49.596;599620866809916544;61.538433;5180
2024-09-16T19:00:49.604;599620866817608832;69.23072;5343
2024-09-16T19:00:49.611;599620866825301248;76.923134;5463
2024-09-16T19:00:49.619;599620866832993536;84.615425;5611
2024-09-16T19:00:49.627;599620866840685824;92.30771;5755
2024-09-16T19:00:49.635;599620866848378112;100.0;5878
2024-09-16T19:00:49.642;599620866856070400;107.69229;6007
2024-09-16T19:00:49.650;599620866863762688;115.384575;6132
2024-09-16T19:00:49.658;599620866871454976;123.076866;6236
2024-09-16T19:00:49.665;599620866879147392;130.76929;6342
2024-09-16T19:00:49.673;599620866886839680;138.46156;6467
2024-09-16T19:00:49.681;599620866894531968;146.15385;6573
2024-09-16T19:00:49.688;599620866902224256;153.84615;6629
2024-09-16T19:00:49.696;599620866909916544;161.53844;6707
2024-09-16T19:00:49.704;599620866917608832;169.23071;7006
2024-09-16T19:00:49.711;599620866925301248;176.92314;7576
2024-09-16T19:00:49.719;599620866932993536;184.61542;7920
2024-09-16T19:00:49.727;599620866940685824;192.30771;7550
2024-09-16T19:00:49.735;599620866948378112;200.0;7079
2024-09-16T19:00:49.742;599620866956070400;207.69229;7122
2024-09-16T19:00:49.750;599620866963762688;215.38458;7173
2024-09-16T19:00:49.758;599620866971454976;223.07686;7067
2024-09-16T19:00:49.765;599620866979147392;230.76929;7150
2024-09-16T19:00:49.773;599620866986839680;238.46156;7261
2024-09-16T19:00:49.781;599620866994531968;246.15385;7261
2024-09-16T19:00:49.788;599620867002224256;253.84615;7289
2024-09-16T19:00:49.796;599620867009916544;261.53842;7341
2024-09-16T19:00:49.804;599620867017608832;269.2307;7364
2024-09-16T19:00:49.811;599620867025301248;276.92313;7390
2024-09-16T19:00:49.819;599620867032993536;284.61542;7428
2024-09-16T19:00:49.827;599620867040685824;292.3077;7458
2024-09-16T19:00:49.835;599620867048378112;300.0;7480
2024-09-16T19:00:49.842;599620867056070400;307.6923;7508
2024-09-16T19:00:49.850;599620867063762688;315.38458;7546
2024-09-16T19:00:49.858;599620867071454976;323.07687;7572
2024-09-16T19:00:49.865;599620867079147392;330.7693;7590
2024-09-16T19:00:49.873;599620867086839680;338.46158;7621
2024-09-16T19:00:49.881;599620867094531968;346.15387;7640
2024-09-16T19:00:49.888;599620867102224256;353.84613;7640
2024-09-16T19:00:49.896;599620867109916544;361.53842;7635
2024-09-16T19:00:49.904;599620867117608832;369.2307;7628
2024-09-16T19:00:49.911;599620867125301248;376.92313;7614
2024-09-16T19:00:49.919;599620867132993536;384.61542;7595
2024-09-16T19:00:49.927;599620867140685824;392.3077;7555
2024-09-16T19:00:49.935;599620867148378112;400.0;7491
2024-09-16T19:00:49.942;599620867156070400;407.6923;7433
2024-09-16T19:00:49.950;599620867163762688;415.38458;7392
2024-09-16T19:00:49.958;599620867171454976;423.07687;7357
2024-09-16T19:00:49.965;599620867179147392;430.7693;7312
2024-09-16T19:00:49.973;599620867186839680;438.46158;7263
2024-09-16T19:00:49.981;599620867194531968;446.15387;7230
2024-09-16T19:00:49.988;599620867202224256;453.84613;7206
2024-09-16T19:00:49.996;599620867209916544;461.53842;7185
2024-09-16T19:00:50.004;599620867217608832;469.2307;7166
2024-09-16T19:00:50.011;599620867225301248;476.92313;7138
2024-09-16T19:00:50.019;599620867232993536;484.61542;7100
2024-09-16T19:00:50.027;599620867240685824;492.3077;7067
2024-09-16T19:00:50.035;599620867248378112;500.0;7034
2024-09-16T19:00:50.042;599620867256070400;507.6923;6994
2024-09-16T19:00:50.050;599620867263762688;515.3846;6954
2024-09-16T19:00:50.058;599620867271454976;523.07684;6912
2024-09-16T19:00:50.065;599620867279147392;530.7693;6858
2024-09-16T19:00:50.073;599620867286839680;538.46155;6827
2024-09-16T19:00:50.081;599620867294531968;546.1539;6844
2024-09-16T19:00:50.088;599620867302224231;553.8461;6848
2024-09-16T19:00:50.096;599620867309899904;561.5218;6780
2024-09-16T19:00:50.104;599620867317575552;569.19745;6690
2024-09-16T19:00:50.111;599620867325251328;576.8732;6622
2024-09-16T19:00:50.119;599620867332926976;584.5489;6558
2024-09-16T19:00:50.127;599620867340602624;592.2245;6500
2024-09-16T19:00:50.134;599620867348278400;599.90027;6457
2024-09-16T19:00:50.142;599620867355954048;607.5759;6422
2024-09-16T19:00:50.150;599620867363629824;615.2517;6372
2024-09-16T19:00:50.157;599620867371305472;622.92737;6313
2024-09-16T19:00:50.165;599620867378981120;630.603;6266
2024-09-16T19:00:50.173;599620867386656896;638.2788;6226
2024-09-16T19:00:50.180;599620867394332544;645.9544;6163
2024-09-16T19:00:50.188;599620867402008192;653.63007;6132
2024-09-16T19:00:50.196;599620867409683968;661.30585;6342
2024-09-16T19:00:50.203;599620867417359616;668.9815;6806
2024-09-16T19:00:50.211;599620867425035392;676.6573;6910
2024-09-16T19:00:50.219;599620867432711040;684.33295;6280
2024-09-16T19:00:50.227;599620867440386688;692.0086;5736
2024-09-16T19:00:50.234;599620867448062464;699.6843;5800
2024-09-16T19:00:50.242;599620867455738112;707.36;5807
2024-09-16T19:00:50.250;599620867463413760;715.03564;5593
2024-09-16T19:00:50.257;599620867471089536;722.7114;5571
2024-09-16T19:00:50.265;599620867478765184;730.3871;5602
2024-09-16T19:00:50.273;599620867486440832;738.06274;5510
2024-09-16T19:00:50.280;599620867494116608;745.7385;5454
2024-09-16T19:00:50.288;599620867501792256;753.4141;5446
2024-09-16T19:00:50.296;599620867509468032;761.0899;5399
2024-09-16T19:00:50.303;599620867517143680;768.76556;5348
2024-09-16T19:00:50.311;599620867524819328;776.4412;5322
2024-09-16T19:00:50.319;599620867532495104;784.117;5289
2024-09-16T19:00:50.326;599620867540170752;791.79266;5244
2024-09-16T19:00:50.334;599620867547846400;799.46826;5225
2024-09-16T19:00:50.342;599620867555522176;807.14404;5209
2024-09-16T19:00:50.349;599620867563197824;814.8197;5176
2024-09-16T19:00:50.357;599620867570873472;822.49536;5157
2024-09-16T19:00:50.365;599620867578549248;830.17114;5147
2024-09-16T19:00:50.372;599620867586224896;837.8468;5117
2024-09-16T19:00:50.380;599620867593900672;845.5226;5088
2024-09-16T19:00:50.388;599620867601576320;853.1982;5065
2024-09-16T19:00:50.395;599620867609251968;860.87384;5013
2024-09-16T19:00:50.403;599620867616927744;868.5496;4952
2024-09-16T19:00:50.411;599620867624603392;876.2253;4909
2024-09-16T19:00:50.418;599620867632279040;883.90094;4839
2024-09-16T19:00:50.426;599620867639954816;891.5767;4742
2024-09-16T19:00:50.434;599620867647630464;899.2524;4653
2024-09-16T19:00:50.441;599620867655306240;906.9281;4572
2024-09-16T19:00:50.449;599620867662981888;914.60376;4506
2024-09-16T19:00:50.457;599620867670657536;922.2794;4445
2024-09-16T19:00:50.464;599620867678333312;929.9552;4375
2024-09-16T19:00:50.472;599620867686008960;937.63086;4320
2024-09-16T19:00:50.480;599620867693684608;945.3065;4278
2024-09-16T19:00:50.487;599620867701360384;952.9823;4240
2024-09-16T19:00:50.495;599620867709036032;960.6579;4210
2024-09-16T19:00:50.503;599620867716711680;968.33356;4174
2024-09-16T19:00:50.511;599620867724387456;976.00934;4129
2024-09-16T19:00:50.518;599620867732063104;983.685;4089
2024-09-16T19:00:50.526;599620867739738880;991.3608;4047
2024-09-16T19:00:50.534;599620867747414528;999.03644;4000
2024-09-16T19:00:50.541;599620867755090176;1006.71204;3953
2024-09-16T19:00:50.549;599620867762765952;1014.3878;3899
2024-09-16T19:00:50.557;599620867770441600;1022.0635;3851
2024-09-16T19:00:50.564;599620867778117248;1029.7391;3835
2024-09-16T19:00:50.572;599620867785793024;1037.4149;3840
2024-09-16T19:00:50.580;599620867793468672;1045.0906;3814
2024-09-16T19:00:50.587;599620867801144448;1052.7664;3753
2024-09-16T19:00:50.595;599620867808820096;1060.442;3687
2024-09-16T19:00:50.603;599620867816495744;1068.1177;3621
2024-09-16T19:00:50.610;599620867824171520;1075.7935;3564
2024-09-16T19:00:50.618;599620867831847168;1083.4691;3517
2024-09-16T19:00:50.626;599620867839522816;1091.1447;3477
2024-09-16T19:00:50.633;599620867847198592;1098.8204;3442
2024-09-16T19:00:50.641;599620867854874240;1106.4961;3397
2024-09-16T19:00:50.649;599620867862549970;1114.1719;3359
2024-09-16T19:00:50.656;599620867870225920;1121.8478;3333
2024-09-16T19:00:50.664;599620867877901824;1129.5237;3291
2024-09-16T19:00:50.672;599620867885577728;1137.1996;3220
2024-09-16T19:00:50.679;599620867893253632;1144.8755;3222
2024-09-16T19:00:50.687;599620867900929536;1152.5514;3512
2024-09-16T19:00:50.695;599620867908605440;1160.2273;4028
2024-09-16T19:00:50.702;599620867916281344;1167.9032;4075
2024-09-16T19:00:50.710;599620867923957248;1175.5791;3345
2024-09-16T19:00:50.718;599620867931633152;1183.255;2822
2024-09-16T19:00:50.725;599620867939309056;1190.9309;2959
2024-09-16T19:00:50.733;599620867946984960;1198.6068;2959
2024-09-16T19:00:50.741;599620867954660864;1206.2827;2751
2024-09-16T19:00:50.748;599620867962336768;1213.9586;2775
2024-09-16T19:00:50.756;599620867970012672;1221.6345;2810
2024-09-16T19:00:50.764;599620867977688576;1229.3104;2721
2024-09-16T19:00:50.771;599620867985364480;1236.9863;2695
2024-09-16T19:00:50.779;599620867993040384;1244.6622;2699
2024-09-16T19:00:50.787;599620868000716288;1252.3381;2671
2024-09-16T19:00:50.795;599620868008392192;1260.014;2650
2024-09-16T19:00:50.802;599620868016068096;1267.69;2643
2024-09-16T19:00:50.810;599620868023744000;1275.3658;2624
2024-09-16T19:00:50.818;599620868031419904;1283.0417;2605
2024-09-16T19:00:50.825;599620868039095808;1290.7177;2593
2024-09-16T19:00:50.833;599620868046771712;1298.3936;2589
2024-09-16T19:00:50.841;599620868054447616;1306.0695;2586
2024-09-16T19:00:50.848;599620868062123520;1313.7454;2589
2024-09-16T19:00:50.856;599620868069799424;1321.4213;2591
2024-09-16T19:00:50.864;599620868077475328;1329.0972;2593
2024-09-16T19:00:50.871;599620868085151232;1336.7731;2586
2024-09-16T19:00:50.879;599620868092827136;1344.449;2560
2024-09-16T19:00:50.887;599620868100503040;1352.1249;2525
2024-09-16T19:00:50.894;599620868108178944;1359.8008;2483
2024-09-16T19:00:50.902;599620868115854848;1367.4767;2438
2024-09-16T19:00:50.910;599620868123530752;1375.1526;2386
2024-09-16T19:00:50.917;599620868131206656;1382.8285;2322
2024-09-16T19:00:50.925;599620868138882560;1390.5044;2254
2024-09-16T19:00:50.933;599620868146558464;1398.1803;2198
2024-09-16T19:00:50.940;599620868154234368;1405.8562;2150
2024-09-16T19:00:50.948;599620868161910272;1413.5321;2108
2024-09-16T19:00:50.956;599620868169586176;1421.208;2075
2024-09-16T19:00:50.963;599620868177262080;1428.8839;2052
2024-09-16T19:00:50.971;599620868184937984;1436.5598;2030
2024-09-16T19:00:50.979;599620868192613888;1444.2357;2007
2024-09-16T19:00:50.986;599620868200289792;1451.9116;1988
2024-09-16T19:00:50.994;599620868207965696;1459.5875;1974
2024-09-16T19:00:51.002;599620868215641600;1467.2634;1955
2024-09-16T19:00:51.009;599620868223317504;1474.9393;1934
2024-09-16T19:00:51.017;599620868230993408;1482.6154;1905
2024-09-16T19:00:51.025;599620868238669312;1490.2913;1884
2024-09-16T19:00:51.032;599620868246345216;1497.9672;1868
2024-09-16T19:00:51.040;599620868254021120;1505.6431;1837
2024-09-16T19:00:51.048;599620868261697024;1513.319;1818
2024-09-16T19:00:51.055;599620868269372928;1520.9949;1837
2024-09-16T19:00:51.063;599620868277048832;1528.6708;1863
2024-09-16T19:00:51.071;599620868284724736;1536.3467;1837
2024-09-16T19:00:51.079;599620868292400640;1544.0226;1774
2024-09-16T19:00:51.086;599620868300076544;1551.6985;1724
2024-09-16T19:00:51.094;599620868307752448;1559.3744;1691
2024-09-16T19:00:51.102;599620868315428352;1567.0503;1658
2024-09-16T19:00:51.109;599620868323104256;1574.7262;1632
2024-09-16T19:00:51.117;599620868330780160;1582.4021;1613
2024-09-16T19:00:51.125;599620868338456064;1590.078;1594
2024-09-16T19:00:51.132;599620868346131968;1597.7539;1576
2024-09-16T19:00:51.140;599620868353807872;1605.4298;1557
2024-09-16T19:00:51.148;599620868361483776;1613.1057;1536
2024-09-16T19:00:51.155;599620868369159680;1620.7816;1500
2024-09-16T19:00:51.163;599620868376835584;1628.4575;1472
2024-09-16T19:00:51.171;599620868384511488;1636.1334;1604
2024-09-16T19:00:51.178;599620868392187392;1643.8093;2052
2024-09-16T19:00:51.186;599620868399863296;1651.4852;2483
2024-09-16T19:00:51.194;599620868407539200;1659.1611;2195
2024-09-16T19:00:51.201;599620868415215104;1666.837;1486
2024-09-16T19:00:51.209;599620868422890967;1674.513;1300
2024-09-16T19:00:51.217;599620868430566912;1682.1888;1385
2024-09-16T19:00:51.224;599620868438242816;1689.8647;1251
2024-09-16T19:00:51.232;599620868445918720;1697.5406;1201
2024-09-16T19:00:51.240;599620868453594624;1705.2166;1274
2024-09-16T19:00:51.247;599620868461270528;1712.8925;1248
2024-09-16T19:00:51.255;599620868468946432;1720.5684;1218
2024-09-16T19:00:51.263;599620868476622336;1728.2443;1234
2024-09-16T19:00:51.270;599620868484298240;1735.9202;1225
2024-09-16T19:00:51.278;599620868491974144;1743.5961;1208
2024-09-16T19:00:51.286;599620868499650048;1751.272;1218
2024-09-16T19:00:51.293;599620868507325952;1758.9479;1222
2024-09-16T19:00:51.301;599620868515001856;1766.6238;1215
2024-09-16T19:00:51.309;599620868522677760;1774.2997;1227
2024-09-16T19:00:51.316;599620868530353664;1781.9756;1243
2024-09-16T19:00:51.324;599620868538029568;1789.6515;1255
2024-09-16T19:00:51.332;599620868545705472;1797.3274;1269
2024-09-16T19:00:51.340;599620868553381376;1805.0033;1286
2024-09-16T19:00:51.347;599620868561057280;1812.6792;1295
2024-09-16T19:00:51.355;599620868568733184;1820.3551;1300
2024-09-16T19:00:51.363;599620868576409088;1828.031;1298
2024-09-16T19:00:51.370;599620868584084992;1835.7069;1286
2024-09-16T19:00:51.378;599620868591760896;1843.3828;1260
2024-09-16T19:00:51.386;599620868599436800;1851.0587;1236
2024-09-16T19:00:51.393;599620868607112704;1858.7346;1213
2024-09-16T19:00:51.401;599620868614788608;1866.4105;1173
2024-09-16T19:00:51.409;599620868622464512;1874.0864;1114
2024-09-16T19:00:51.416;599620868630140416;1881.7623;1069
2024-09-16T19:00:51.424;599620868637816320;1889.4382;1041
2024-09-16T19:00:51.432;599620868645492224;1897.1141;1013
2024-09-16T19:00:51.439;599620868653168128;1904.79;987
2024-09-16T19:00:51.447;599620868660844032;1912.466;968
2024-09-16T19:00:51.455;599620868668519936;1920.1418;958
2024-09-16T19:00:51.462;599620868676195840;1927.8177;956
2024-09-16T19:00:51.470;599620868683871744;1935.4937;961
2024-09-16T19:00:51.478;599620868691547648;1943.1696;956
2024-09-16T19:00:51.485;599620868699223552;1950.8455;947
2024-09-16T19:00:51.493;599620868706899456;1958.5214;942
2024-09-16T19:00:51.501;599620868714575360;1966.1973;937
2024-09-16T19:00:51.508;599620868722251264;1973.8732;923
2024-09-16T19:00:51.516;599620868729927168;1981.5491;909
2024-09-16T19:00:51.524;599620868737603072;1989.225;899
2024-09-16T19:00:51.531;599620868745278976;1996.9009;890
2024-09-16T19:00:51.539;599620868752954880;2004.5768;897
2024-09-16T19:00:51.547;599620868760630784;2012.2527;937
2024-09-16T19:00:51.554;599620868768306688;2019.9286;963
2024-09-16T19:00:51.562;599620868775982592;2027.6045;923
2024-09-16T19:00:51.570;599620868783658496;2035.2804;866
2024-09-16T19:00:51.577;599620868791334400;2042.9563;841
2024-09-16T19:00:51.585;599620868799010304;2050.632;817
2024-09-16T19:00:51.593;599620868806686208;2058.308;793
2024-09-16T19:00:51.600;599620868814362112;2065.984;782
2024-09-16T19:00:51.608;599620868822038016;2073.66;777
2024-09-16T19:00:51.616;599620868829713920;2081.3357;772
2024-09-16T19:00:51.624;599620868837389824;2089.0117;765
2024-09-16T19:00:51.631;599620868845065728;2096.6875;758
2024-09-16T19:00:51.639;599620868852741632;2104.3635;744
2024-09-16T19:00:51.647;599620868860417536;2112.0393;709
2024-09-16T19:00:51.654;599620868868093440;2119.7153;709
2024-09-16T19:00:51.662;599620868875769344;2127.391;935
2024-09-16T19:00:51.670;599620868883445248;2135.0671;1425
2024-09-16T19:00:51.677;599620868891121152;2142.743;1656
2024-09-16T19:00:51.685;599620868898797056;2150.419;1182
2024-09-16T19:00:51.693;599620868906472960;2158.0947;673
2024-09-16T19:00:51.700;599620868914148864;2165.7708;680
2024-09-16T19:00:51.708;599620868921824768;2173.4468;671
2024-09-16T19:00:51.716;599620868929500672;2181.1226;520
2024-09-16T19:00:51.723;599620868937176576;2188.7986;558
2024-09-16T19:00:51.731;599620868944852480;2196.4744;610
2024-09-16T19:00:51.739;599620868952528384;2204.1504;560
2024-09-16T19:00:51.746;599620868960204288;2211.8262;567
2024-09-16T19:00:51.754;599620868967880192;2219.5022;603
2024-09-16T19:00:51.762;599620868975556096;2227.178;596
2024-09-16T19:00:51.769;599620868983231966;2234.854;593
2024-09-16T19:00:51.777;599620868990907648;2242.5295;610
2024-09-16T19:00:51.785;599620868998583296;2250.205;617
2024-09-16T19:00:51.792;599620869006259072;2257.881;619
2024-09-16T19:00:51.800;599620869013934720;2265.5564;631
2024-09-16T19:00:51.808;599620869021610368;2273.2324;654
2024-09-16T19:00:51.815;599620869029286144;2280.908;676
2024-09-16T19:00:51.823;599620869036961792;2288.5837;692
2024-09-16T19:00:51.831;599620869044637568;2296.2595;720
2024-09-16T19:00:51.838;599620869052313216;2303.935;744
2024-09-16T19:00:51.846;599620869059988864;2311.6108;749
2024-09-16T19:00:51.854;599620869067664640;2319.2866;746
2024-09-16T19:00:51.861;599620869075340288;2326.9622;739
2024-09-16T19:00:51.869;599620869083015936;2334.638;727
2024-09-16T19:00:51.877;599620869090691712;2342.3135;716
2024-09-16T19:00:51.884;599620869098367360;2349.9893;692
2024-09-16T19:00:51.892;599620869106043136;2357.665;659
2024-09-16T19:00:51.900;599620869113718784;2365.3406;629
2024-09-16T19:00:51.908;599620869121394432;2373.0164;596
2024-09-16T19:00:51.915;599620869129070208;2380.692;567
2024-09-16T19:00:51.923;599620869136745856;2388.368;548
2024-09-16T19:00:51.931;599620869144421504;2396.0432;530
2024-09-16T19:00:51.938;599620869152097280;2403.7192;520
2024-09-16T19:00:51.946;599620869159772928;2411.3948;525
2024-09-16T19:00:51.954;599620869167448576;2419.0706;530
2024-09-16T19:00:51.961;599620869175124352;2426.7463;530
2024-09-16T19:00:51.969;599620869182800000;2434.4219;530
2024-09-16T19:00:51.977;599620869190475776;2442.0977;530
2024-09-16T19:00:51.984;599620869198151424;2449.7732;530
2024-09-16T19:00:51.992;599620869205827072;2457.449;527
2024-09-16T19:00:52.000;599620869213502848;2465.1248;518
2024-09-16T19:00:52.007;599620869221178496;2472.8003;513
2024-09-16T19:00:52.015;599620869228854144;2480.476;506
2024-09-16T19:00:52.023;599620869236529920;2488.1519;499
2024-09-16T19:00:52.030;599620869244205568;2495.8274;527
2024-09-16T19:00:52.038;599620869251881216;2503.5032;572
2024-09-16T19:00:52.046;599620869259556992;2511.1787;567
2024-09-16T19:00:52.053;599620869267232640;2518.8547;532
2024-09-16T19:00:52.061;599620869274908416;2526.5303;508
2024-09-16T19:00:52.069;599620869282584064;2534.206;480
2024-09-16T19:00:52.076;599620869290259712;2541.8816;452
2024-09-16T19:00:52.084;599620869297935488;2549.5571;442
2024-09-16T19:00:52.092;599620869305611136;2557.2332;445
2024-09-16T19:00:52.099;599620869313286784;2564.9084;442
2024-09-16T19:00:52.107;599620869320962560;2572.5845;442
2024-09-16T19:00:52.115;599620869328638208;2580.26;447
2024-09-16T19:00:52.122;599620869336313984;2587.9358;440
2024-09-16T19:00:52.130;599620869343989632;2595.6116;417
2024-09-16T19:00:52.138;599620869351665280;2603.287;407
2024-09-16T19:00:52.145;599620869359341056;2610.963;548
2024-09-16T19:00:52.153;599620869367016704;2618.6387;989
2024-09-16T19:00:52.161;599620869374692352;2626.3142;1380
2024-09-16T19:00:52.168;599620869382368128;2633.9902;1055
2024-09-16T19:00:52.176;599620869390043776;2641.6655;360
2024-09-16T19:00:52.184;599620869397719424;2649.3416;256
2024-09-16T19:00:52.192;599620869405395200;2657.017;459
2024-09-16T19:00:52.199;599620869413070848;2664.6926;332
2024-09-16T19:00:52.207;599620869420746624;2672.3687;233
2024-09-16T19:00:52.215;599620869428422272;2680.044;336
2024-09-16T19:00:52.222;599620869436097920;2687.72;339
2024-09-16T19:00:52.230;599620869443773696;2695.3955;303
2024-09-16T19:00:52.238;599620869451449344;2703.0713;343
2024-09-16T19:00:52.245;599620869459124992;2710.7468;355
2024-09-16T19:00:52.253;599620869466800768;2718.4226;334
2024-09-16T19:00:52.261;599620869474476416;2726.0984;351
2024-09-16T19:00:52.268;599620869482152192;2733.7742;379
2024-09-16T19:00:52.276;599620869489827840;2741.4497;379
2024-09-16T19:00:52.284;599620869497503488;2749.1255;381
2024-09-16T19:00:52.291;599620869505179264;2756.801;412
2024-09-16T19:00:52.299;599620869512854912;2764.4768;435
2024-09-16T19:00:52.307;599620869520530560;2772.1523;449
2024-09-16T19:00:52.314;599620869528206336;2779.8281;492
2024-09-16T19:00:52.322;599620869535881984;2787.504;534
2024-09-16T19:00:52.330;599620869543557705;2795.1794;541
2024-09-16T19:00:52.337;599620869551233408;2802.8555;541
2024-09-16T19:00:52.345;599620869558909056;2810.5308;558
2024-09-16T19:00:52.353;599620869566584832;2818.2068;558
2024-09-16T19:00:52.360;599620869574260480;2825.8823;532
2024-09-16T19:00:52.368;599620869581936128;2833.558;511
2024-09-16T19:00:52.376;599620869589611904;2841.234;478
2024-09-16T19:00:52.383;599620869597287552;2848.9094;419
2024-09-16T19:00:52.391;599620869604963328;2856.5852;388
2024-09-16T19:00:52.399;599620869612638976;2864.2607;379
2024-09-16T19:00:52.406;599620869620314624;2871.9365;341
2024-09-16T19:00:52.414;599620869627990400;2879.6123;308
2024-09-16T19:00:52.422;599620869635666048;2887.2878;310
2024-09-16T19:00:52.429;599620869643341696;2894.9636;318
2024-09-16T19:00:52.437;599620869651017472;2902.6394;315
2024-09-16T19:00:52.445;599620869658693120;2910.315;325
2024-09-16T19:00:52.452;599620869666368896;2917.991;325
2024-09-16T19:00:52.460;599620869674044544;2925.6663;318
2024-09-16T19:00:52.468;599620869681720192;2933.3423;327
2024-09-16T19:00:52.476;599620869689395968;2941.0178;339
2024-09-16T19:00:52.483;599620869697071616;2948.6936;327
2024-09-16T19:00:52.491;599620869704747264;2956.3691;310
2024-09-16T19:00:52.499;599620869712423040;2964.045;301
2024-09-16T19:00:52.506;599620869720098688;2971.7207;299
2024-09-16T19:00:52.514;599620869727774336;2979.396;315
2024-09-16T19:00:52.522;599620869735450112;2987.072;348
2024-09-16T19:00:52.529;599620869743125760;2994.7476;362
2024-09-16T19:00:52.537;599620869750801536;3002.4233;336
2024-09-16T19:00:52.545;599620869758477184;3010.099;303
2024-09-16T19:00:52.552;599620869766152832;3017.7747;289
2024-09-16T19:00:52.560;599620869773828608;3025.4504;270
2024-09-16T19:00:52.568;599620869781504256;3033.1262;259
2024-09-16T19:00:52.575;599620869789179904;3040.8018;254
2024-09-16T19:00:52.583;599620869796855680;3048.4778;242
2024-09-16T19:00:52.591;599620869804531328;3056.153;242
2024-09-16T19:00:52.598;599620869812206976;3063.829;252
2024-09-16T19:00:52.606;599620869819882752;3071.5046;247
2024-09-16T19:00:52.614;599620869827558400;3079.1802;223
2024-09-16T19:00:52.621;599620869835234176;3086.8562;207
2024-09-16T19:00:52.629;599620869842909824;3094.5315;313
2024-09-16T19:00:52.637;599620869850585472;3102.2075;751
2024-09-16T19:00:52.644;599620869858261248;3109.883;1298
2024-09-16T19:00:52.652;599620869865936896;3117.5588;1133
2024-09-16T19:00:52.660;599620869873612544;3125.2344;299
2024-09-16T19:00:52.667;599620869881288320;3132.9102;-2
2024-09-16T19:00:52.675;599620869888963968;3140.586;252
2024-09-16T19:00:52.683;599620869896639744;3148.2617;188
2024-09-16T19:00:52.690;599620869904315392;3155.9373;37
2024-09-16T19:00:52.698;599620869911991040;3163.613;141
2024-09-16T19:00:52.706;599620869919666816;3171.2886;183
2024-09-16T19:00:52.713;599620869927342464;3178.9646;136
2024-09-16T19:00:52.721;599620869935018112;3186.64;150
2024-09-16T19:00:52.729;599620869942693888;3194.3157;160
2024-09-16T19:00:52.736;599620869950369536;3201.9915;167
2024-09-16T19:00:52.744;599620869958045184;3209.667;202
2024-09-16T19:00:52.752;599620869965720960;3217.343;209
2024-09-16T19:00:52.760;599620869973396608;3225.0183;207
2024-09-16T19:00:52.767;599620869981072384;3232.6943;247
2024-09-16T19:00:52.775;599620869988748032;3240.3699;275
2024-09-16T19:00:52.783;599620869996423680;3248.0457;270
2024-09-16T19:00:52.790;599620870004099456;3255.7214;294
2024-09-16T19:00:52.798;599620870011775104;3263.397;346
2024-09-16T19:00:52.806;599620870019450752;3271.0728;372
2024-09-16T19:00:52.813;599620870027126528;3278.7485;384
2024-09-16T19:00:52.821;599620870034802176;3286.424;412
2024-09-16T19:00:52.829;599620870042477952;3294.0999;428
2024-09-16T19:00:52.836;599620870050153600;3301.7754;407
2024-09-16T19:00:52.844;599620870057829248;3309.4512;388
2024-09-16T19:00:52.852;599620870065505024;3317.127;379
2024-09-16T19:00:52.859;599620870073180672;3324.8025;348
2024-09-16T19:00:52.867;599620870080856320;3332.4783;292
2024-09-16T19:00:52.875;599620870088532096;3340.1538;249
2024-09-16T19:00:52.882;599620870096207744;3347.8298;233
2024-09-16T19:00:52.890;599620870103883444;3355.5054;216
2024-09-16T19:00:52.898;599620870111559040;3363.1812;183
2024-09-16T19:00:52.905;599620870119234688;3370.8564;164
2024-09-16T19:00:52.913;599620870126910464;3378.5325;171
2024-09-16T19:00:52.921;599620870134586112;3386.208;181
2024-09-16T19:00:52.928;599620870142261760;3393.8835;181
2024-09-16T19:00:52.936;599620870149937536;3401.5596;179
2024-09-16T19:00:52.944;599620870157613184;3409.2349;186
2024-09-16T19:00:52.951;599620870165288960;3416.911;193
2024-09-16T19:00:52.959;599620870172964608;3424.5864;195
2024-09-16T19:00:52.967;599620870180640256;3432.2622;190
2024-09-16T19:00:52.974;599620870188316032;3439.938;179
2024-09-16T19:00:52.982;599620870195991680;3447.6135;179
2024-09-16T19:00:52.990;599620870203667328;3455.2893;200
2024-09-16T19:00:52.997;599620870211343104;3462.965;240
2024-09-16T19:00:53.005;599620870219018752;3470.6406;268
2024-09-16T19:00:53.013;599620870226694528;3478.3167;254
2024-09-16T19:00:53.020;599620870234370176;3485.992;223
2024-09-16T19:00:53.028;599620870242045824;3493.6677;207
2024-09-16T19:00:53.036;599620870249721600;3501.3435;183
2024-09-16T19:00:53.044;599620870257397248;3509.019;162
2024-09-16T19:00:53.051;599620870265072896;3516.6948;160
2024-09-16T19:00:53.059;599620870272748672;3524.3704;157
2024-09-16T19:00:53.067;599620870280424320;3532.0464;148
2024-09-16T19:00:53.074;599620870288099968;3539.7217;153
2024-09-16T19:00:53.082;599620870295775744;3547.3977;162
2024-09-16T19:00:53.090;599620870303451392;3555.0732;157
2024-09-16T19:00:53.097;599620870311127168;3562.749;122
2024-09-16T19:00:53.105;599620870318802816;3570.4248;122
2024-09-16T19:00:53.113;599620870326478464;3578.1003;398
2024-09-16T19:00:53.120;599620870334154240;3585.7761;1050
2024-09-16T19:00:53.128;599620870341829888;3593.4517;1415
2024-09-16T19:00:53.136;599620870349505536;3601.1274;732
2024-09-16T19:00:53.143;599620870357181312;3608.8032;-89
2024-09-16T19:00:53.151;599620870364856960;3616.4788;-7
2024-09-16T19:00:53.159;599620870372532608;3624.1545;179
2024-09-16T19:00:53.166;599620870380208384;3631.8303;-9
2024-09-16T19:00:53.174;599620870387884032;3639.5059;-18
2024-09-16T19:00:53.182;599620870395559808;3647.182;91
2024-09-16T19:00:53.189;599620870403235456;3654.8572;63
2024-09-16T19:00:53.197;599620870410911104;3662.5332;47
2024-09-16T19:00:53.205;599620870418586880;3670.2087;91
2024-09-16T19:00:53.212;599620870426262528;3677.8845;103
2024-09-16T19:00:53.220;599620870433938176;3685.56;98
2024-09-16T19:00:53.228;599620870441613952;3693.2356;115
2024-09-16T19:00:53.235;599620870449289600;3700.9116;141
2024-09-16T19:00:53.243;599620870456965376;3708.5872;160
2024-09-16T19:00:53.251;599620870464641024;3716.263;179
2024-09-16T19:00:53.258;599620870472316672;3723.9385;209
2024-09-16T19:00:53.266;599620870479992448;3731.6143;235
2024-09-16T19:00:53.274;599620870487668096;3739.29;259
2024-09-16T19:00:53.281;599620870495343744;3746.9656;292
2024-09-16T19:00:53.289;599620870503019520;3754.6414;325
2024-09-16T19:00:53.297;599620870510695168;3762.3171;339
2024-09-16T19:00:53.304;599620870518370816;3769.9927;339
2024-09-16T19:00:53.312;599620870526046592;3777.6687;346
2024-09-16T19:00:53.320;599620870533722240;3785.344;339
2024-09-16T19:00:53.328;599620870541398016;3793.02;301
2024-09-16T19:00:53.335;599620870549073664;3800.6956;266
2024-09-16T19:00:53.343;599620870556749312;3808.371;245
2024-09-16T19:00:53.351;599620870564425088;3816.047;204
2024-09-16T19:00:53.358;599620870572100736;3823.7224;162
2024-09-16T19:00:53.366;599620870579776384;3831.3984;143
2024-09-16T19:00:53.374;599620870587452160;3839.074;124
2024-09-16T19:00:53.381;599620870595127808;3846.7498;108
2024-09-16T19:00:53.389;599620870602803584;3854.4255;108
2024-09-16T19:00:53.397;599620870610479232;3862.101;110
2024-09-16T19:00:53.404;599620870618154880;3869.7769;110
2024-09-16T19:00:53.412;599620870625830656;3877.4526;127
2024-09-16T19:00:53.420;599620870633506304;3885.1282;131
2024-09-16T19:00:53.427;599620870641181952;3892.804;129
2024-09-16T19:00:53.435;599620870648857728;3900.4795;139
2024-09-16T19:00:53.443;599620870656533376;3908.1553;150
2024-09-16T19:00:53.450;599620870664209183;3915.831;139
2024-09-16T19:00:53.458;599620870671884800;3923.5066;131
2024-09-16T19:00:53.466;599620870679560448;3931.1824;143
2024-09-16T19:00:53.473;599620870687236224;3938.858;162
2024-09-16T19:00:53.481;599620870694911872;3946.534;197
2024-09-16T19:00:53.489;599620870702587520;3954.2092;230
2024-09-16T19:00:53.496;599620870710263296;3961.8853;212
2024-09-16T19:00:53.504;599620870717938944;3969.5608;169
2024-09-16T19:00:53.512;599620870725614720;3977.2366;150
2024-09-16T19:00:53.519;599620870733290368;3984.9124;134
2024-09-16T19:00:53.527;599620870740966016;3992.588;106
2024-09-16T19:00:53.535;599620870748641792;4000.2637;101
2024-09-16T19:00:53.542;599620870756317440;4007.9392;115
2024-09-16T19:00:53.550;599620870763993088;4015.615;115
2024-09-16T19:00:53.558;599620870771668864;4023.2908;103
2024-09-16T19:00:53.565;599620870779344512;4030.9663;103
2024-09-16T19:00:53.573;599620870787020288;4038.642;103
2024-09-16T19:00:53.581;599620870794695936;4046.3179;63
2024-09-16T19:00:53.588;599620870802371584;4053.9934;96
2024-09-16T19:00:53.596;599620870810047360;4061.6694;482
2024-09-16T19:00:53.604;599620870817723008;4069.3447;1192
2024-09-16T19:00:53.612;599620870825398656;4077.0208;1342
2024-09-16T19:00:53.619;599620870833074432;4084.6963;471
2024-09-16T19:00:53.627;599620870840750080;4092.372;-162
2024-09-16T19:00:53.635;599620870848425728;4100.048;30
2024-09-16T19:00:53.642;599620870856101504;4107.723;84
2024-09-16T19:00:53.650;599620870863777152;4115.399;-82
2024-09-16T19:00:53.658;599620870871452928;4123.0747;-11
2024-09-16T19:00:53.665;599620870879128576;4130.7505;61
2024-09-16T19:00:53.673;599620870886804224;4138.4263;7
2024-09-16T19:00:53.681;599620870894480000;4146.1016;18
2024-09-16T19:00:53.688;599620870902155648;4153.778;68
2024-09-16T19:00:53.696;599620870909831296;4161.453;65
2024-09-16T19:00:53.704;599620870917507072;4169.129;65
2024-09-16T19:00:53.711;599620870925182720;4176.8047;96
2024-09-16T19:00:53.719;599620870932858368;4184.4805;117
2024-09-16T19:00:53.727;599620870940534144;4192.1562;134
2024-09-16T19:00:53.734;599620870948209792;4199.8315;160
2024-09-16T19:00:53.742;599620870955885568;4207.5073;183
2024-09-16T19:00:53.750;599620870963561216;4215.183;216
2024-09-16T19:00:53.757;599620870971236864;4222.859;249
2024-09-16T19:00:53.765;599620870978912640;4230.5347;273
2024-09-16T19:00:53.773;599620870986588288;4238.21;294
2024-09-16T19:00:53.780;599620870994263936;4245.8857;320
2024-09-16T19:00:53.788;599620871001939712;4253.5615;315
2024-09-16T19:00:53.796;599620871009615360;4261.2373;294
2024-09-16T19:00:53.803;599620871017291136;4268.913;287
2024-09-16T19:00:53.811;599620871024966784;4276.5884;280
2024-09-16T19:00:53.819;599620871032642432;4284.2646;240
2024-09-16T19:00:53.826;599620871040318208;4291.94;193
2024-09-16T19:00:53.834;599620871047993856;4299.6157;162
2024-09-16T19:00:53.842;599620871055669504;4307.291;134
2024-09-16T19:00:53.849;599620871063345280;4314.967;110
2024-09-16T19:00:53.857;599620871071020928;4322.643;103
2024-09-16T19:00:53.865;599620871078696576;4330.3184;98
2024-09-16T19:00:53.872;599620871086372352;4337.994;94
2024-09-16T19:00:53.880;599620871094048000;4345.6694;91
2024-09-16T19:00:53.888;599620871101723776;4353.3457;89
2024-09-16T19:00:53.896;599620871109399424;4361.0215;96
2024-09-16T19:00:53.903;599620871117075072;4368.697;110
2024-09-16T19:00:53.911;599620871124750848;4376.3726;117
2024-09-16T19:00:53.919;599620871132426496;4384.0483;122
2024-09-16T19:00:53.926;599620871140102144;4391.724;120
2024-09-16T19:00:53.934;599620871147777920;4399.4;113
2024-09-16T19:00:53.942;599620871155453568;4407.075;110
2024-09-16T19:00:53.949;599620871163129344;4414.7515;115
2024-09-16T19:00:53.957;599620871170804992;4422.427;136
2024-09-16T19:00:53.965;599620871178480640;4430.1025;190
2024-09-16T19:00:53.972;599620871186156416;4437.7783;214
2024-09-16T19:00:53.980;599620871193832064;4445.4536;171
2024-09-16T19:00:53.988;599620871201507712;4453.13;139
2024-09-16T19:00:53.995;599620871209183488;4460.805;131
2024-09-16T19:00:54.003;599620871216859136;4468.481;113
2024-09-16T19:00:54.011;599620871224534922;4476.1567;94
2024-09-16T19:00:54.018;599620871232210560;4483.8325;89
2024-09-16T19:00:54.026;599620871239886208;4491.5083;89
2024-09-16T19:00:54.034;599620871247561984;4499.1836;94
2024-09-16T19:00:54.041;599620871255237632;4506.8594;101
2024-09-16T19:00:54.049;599620871262913280;4514.5356;94
2024-09-16T19:00:54.057;599620871270589056;4522.211;63
2024-09-16T19:00:54.064;599620871278264704;4529.8867;28
2024-09-16T19:00:54.072;599620871285940480;4537.562;122
2024-09-16T19:00:54.080;599620871293616128;4545.238;605
2024-09-16T19:00:54.087;599620871301291776;4552.914;1253
2024-09-16T19:00:54.095;599620871308967552;4560.5894;1083
2024-09-16T19:00:54.103;599620871316643200;4568.265;143
2024-09-16T19:00:54.110;599620871324318848;4575.9404;-171
2024-09-16T19:00:54.118;599620871331994624;4583.6167;101
2024-09-16T19:00:54.126;599620871339670272;4591.2925;25
2024-09-16T19:00:54.133;599620871347346048;4598.968;-94
2024-09-16T19:00:54.141;599620871355021696;4606.6436;21
2024-09-16T19:00:54.149;599620871362697344;4614.3193;32
2024-09-16T19:00:54.156;599620871370373120;4621.995;-16
2024-09-16T19:00:54.164;599620871378048768;4629.671;28
2024-09-16T19:00:54.172;599620871385724416;4637.346;65
2024-09-16T19:00:54.180;599620871393400192;4645.022;54
2024-09-16T19:00:54.187;599620871401075840;4652.6978;61
2024-09-16T19:00:54.195;599620871408751488;4660.3735;87
2024-09-16T19:00:54.203;599620871416427264;4668.0493;108
2024-09-16T19:00:54.210;599620871424102912;4675.7246;129
2024-09-16T19:00:54.218;599620871431778688;4683.401;155
2024-09-16T19:00:54.226;599620871439454336;4691.076;186
2024-09-16T19:00:54.233;599620871447129984;4698.752;214
2024-09-16T19:00:54.241;599620871454805760;4706.4277;240
2024-09-16T19:00:54.249;599620871462481408;4714.1035;270
2024-09-16T19:00:54.256;599620871470157056;4721.779;294
2024-09-16T19:00:54.264;599620871477832832;4729.4546;294
2024-09-16T19:00:54.272;599620871485508480;4737.1304;285
2024-09-16T19:00:54.279;599620871493184128;4744.8057;275
2024-09-16T19:00:54.287;599620871500859904;4752.482;263
2024-09-16T19:00:54.295;599620871508535552;4760.157;245
2024-09-16T19:00:54.302;599620871516211328;4767.833;216
2024-09-16T19:00:54.310;599620871523886976;4775.509;181
2024-09-16T19:00:54.318;599620871531562624;4783.1846;148
2024-09-16T19:00:54.325;599620871539238400;4790.8604;124
2024-09-16T19:00:54.333;599620871546914048;4798.5356;108
2024-09-16T19:00:54.341;599620871554589696;4806.2114;94
2024-09-16T19:00:54.348;599620871562265472;4813.8877;82
2024-09-16T19:00:54.356;599620871569941120;4821.563;75
2024-09-16T19:00:54.364;599620871577616896;4829.239;75
2024-09-16T19:00:54.371;599620871585292544;4836.914;82
2024-09-16T19:00:54.379;599620871592968192;4844.59;94
2024-09-16T19:00:54.387;599620871600643968;4852.266;103
2024-09-16T19:00:54.394;599620871608319616;4859.9414;103
2024-09-16T19:00:54.402;599620871615995264;4867.617;103
2024-09-16T19:00:54.410;599620871623671040;4875.2925;103
2024-09-16T19:00:54.417;599620871631346688;4882.9688;98
2024-09-16T19:00:54.425;599620871639022336;4890.6445;96
2024-09-16T19:00:54.433;599620871646698112;4898.32;96
2024-09-16T19:00:54.440;599620871654373760;4905.9956;108
2024-09-16T19:00:54.448;599620871662049536;4913.6714;162
2024-09-16T19:00:54.456;599620871669725184;4921.347;193
2024-09-16T19:00:54.464;599620871677400832;4929.023;155
2024-09-16T19:00:54.471;599620871685076608;4936.698;110
2024-09-16T19:00:54.479;599620871692752256;4944.3745;96
2024-09-16T19:00:54.487;599620871700427904;4952.05;82
2024-09-16T19:00:54.494;599620871708103680;4959.7256;63
2024-09-16T19:00:54.502;599620871715779328;4967.4014;65
2024-09-16T19:00:54.510;599620871723455104;4975.0767;73
2024-09-16T19:00:54.517;599620871731130752;4982.753;65
2024-09-16T19:00:54.525;599620871738806400;4990.428;63
2024-09-16T19:00:54.533;599620871746482176;4998.104;73
2024-09-16T19:00:54.540;599620871754157824;5005.78;56
2024-09-16T19:00:54.548;599620871761833472;5013.4556;11
2024-09-16T19:00:54.556;599620871769509248;5021.1313;84
2024-09-16T19:00:54.563;599620871777184896;5028.8066;506
2024-09-16T19:00:54.571;599620871784860661;5036.4824;1027
2024-09-16T19:00:54.579;599620871792536320;5044.1587;862
2024-09-16T19:00:54.586;599620871800211968;5051.834;106
2024-09-16T19:00:54.594;599620871807887744;5059.51;-129
2024-09-16T19:00:54.602;599620871815563392;5067.185;96
2024-09-16T19:00:54.609;599620871823239040;5074.861;14
2024-09-16T19:00:54.617;599620871830914816;5082.537;-103
2024-09-16T19:00:54.625;599620871838590464;5090.2124;-7
2024-09-16T19:00:54.632;599620871846266240;5097.888;9
2024-09-16T19:00:54.640;599620871853941888;5105.5635;-35
2024-09-16T19:00:54.648;599620871861617536;5113.2397;-9
2024-09-16T19:00:54.655;599620871869293312;5120.9155;14
2024-09-16T19:00:54.663;599620871876968960;5128.591;16
2024-09-16T19:00:54.671;599620871884644608;5136.266;37
2024-09-16T19:00:54.678;599620871892320384;5143.9424;58
2024-09-16T19:00:54.686;599620871899996032;5151.618;68
2024-09-16T19:00:54.694;599620871907671808;5159.294;84
2024-09-16T19:00:54.701;599620871915347456;5166.969;108
2024-09-16T19:00:54.709;599620871923023104;5174.6445;131
2024-09-16T19:00:54.717;599620871930698880;5182.321;153
2024-09-16T19:00:54.724;599620871938374528;5189.9966;181
2024-09-16T19:00:54.732;599620871946050176;5197.672;216
2024-09-16T19:00:54.740;599620871953725952;5205.3477;235
2024-09-16T19:00:54.748;599620871961401600;5213.0234;237
2024-09-16T19:00:54.755;599620871969077248;5220.699;233
2024-09-16T19:00:54.763;599620871976753024;5228.375;221
2024-09-16T19:00:54.771;599620871984428672;5236.0503;202
2024-09-16T19:00:54.778;599620871992104448;5243.7266;186
2024-09-16T19:00:54.786;599620871999780096;5251.402;169
2024-09-16T19:00:54.794;599620872007455744;5259.0776;141
2024-09-16T19:00:54.801;599620872015131520;5266.7534;110
2024-09-16T19:00:54.809;599620872022807168;5274.4287;91
2024-09-16T19:00:54.817;599620872030482816;5282.105;73
2024-09-16T19:00:54.824;599620872038158592;5289.7803;56
2024-09-16T19:00:54.832;599620872045834240;5297.456;61
2024-09-16T19:00:54.840;599620872053509888;5305.132;65
2024-09-16T19:00:54.847;599620872061185664;5312.8076;65
2024-09-16T19:00:54.855;599620872068861312;5320.4834;70
2024-09-16T19:00:54.863;599620872076537088;5328.1587;75
2024-09-16T19:00:54.870;599620872084212736;5335.8345;73
2024-09-16T19:00:54.878;599620872091888384;5343.5107;80
2024-09-16T19:00:54.886;599620872099564160;5351.186;87
2024-09-16T19:00:54.893;599620872107239808;5358.862;80
2024-09-16T19:00:54.901;599620872114915456;5366.537;73
2024-09-16T19:00:54.909;599620872122591232;5374.213;70
2024-09-16T19:00:54.916;599620872130266880;5381.889;68
2024-09-16T19:00:54.924;599620872137942656;5389.5645;91
2024-09-16T19:00:54.932;599620872145618304;5397.24;141
2024-09-16T19:00:54.939;599620872153293952;5404.9155;171
2024-09-16T19:00:54.947;599620872160969728;5412.592;146
2024-09-16T19:00:54.955;599620872168645376;5420.2676;106
2024-09-16T19:00:54.962;599620872176321024;5427.943;82
2024-09-16T19:00:54.970;599620872183996800;5435.6187;68
2024-09-16T19:00:54.978;599620872191672448;5443.2944;54
2024-09-16T19:00:54.985;599620872199348096;5450.97;51
2024-09-16T19:00:54.993;599620872207023872;5458.646;58
2024-09-16T19:00:55.001;599620872214699520;5466.3213;54
2024-09-16T19:00:55.008;599620872222375296;5473.997;51
2024-09-16T19:00:55.016;599620872230050944;5481.673;56
2024-09-16T19:00:55.024;599620872237726592;5489.3486;51
2024-09-16T19:00:55.032;599620872245402368;5497.0244;14
2024-09-16T19:00:55.039;599620872253078016;5504.6997;56
2024-09-16T19:00:55.047;599620872260753664;5512.3755;379
2024-09-16T19:00:55.055;599620872268429440;5520.0513;852
2024-09-16T19:00:55.062;599620872276105088;5527.727;826
2024-09-16T19:00:55.070;599620872283780864;5535.403;226
2024-09-16T19:00:55.078;599620872291456512;5543.0786;-47
2024-09-16T19:00:55.085;599620872299132160;5550.754;103
2024-09-16T19:00:55.093;599620872306807936;5558.4297;30
2024-09-16T19:00:55.101;599620872314483584;5566.1055;-96
2024-09-16T19:00:55.108;599620872322159232;5573.781;-9
2024-09-16T19:00:55.116;599620872329835008;5581.457;23
2024-09-16T19:00:55.124;599620872337510656;5589.1323;-21
2024-09-16T19:00:55.131;599620872345186400;5596.808;0
2024-09-16T19:00:55.139;599620872352862080;5604.484;28
2024-09-16T19:00:55.147;599620872360537728;5612.1597;21
2024-09-16T19:00:55.154;599620872368213504;5619.8354;32
2024-09-16T19:00:55.162;599620872375889152;5627.5107;58
2024-09-16T19:00:55.170;599620872383564800;5635.1865;63
2024-09-16T19:00:55.177;599620872391240576;5642.863;73
2024-09-16T19:00:55.185;599620872398916224;5650.538;108
2024-09-16T19:00:55.193;599620872406592000;5658.214;136
2024-09-16T19:00:55.200;599620872414267648;5665.889;146
2024-09-16T19:00:55.208;599620872421943296;5673.565;171
2024-09-16T19:00:55.216;599620872429619072;5681.241;209
2024-09-16T19:00:55.223;599620872437294720;5688.9165;221
2024-09-16T19:00:55.231;599620872444970368;5696.5923;221
2024-09-16T19:00:55.239;599620872452646144;5704.2676;228
2024-09-16T19:00:55.246;599620872460321792;5711.944;230
2024-09-16T19:00:55.254;599620872467997568;5719.6196;226
2024-09-16T19:00:55.262;599620872475673216;5727.295;219
2024-09-16T19:00:55.269;599620872483348864;5734.9707;202
2024-09-16T19:00:55.277;599620872491024640;5742.6465;167
2024-09-16T19:00:55.285;599620872498700288;5750.3223;141
2024-09-16T19:00:55.292;599620872506375936;5757.998;124
2024-09-16T19:00:55.300;599620872514051712;5765.6733;96
2024-09-16T19:00:55.308;599620872521727360;5773.3496;73
2024-09-16T19:00:55.316;599620872529403008;5781.025;77
2024-09-16T19:00:55.323;599620872537078784;5788.7007;94
2024-09-16T19:00:55.331;599620872544754432;5796.3765;98
2024-09-16T19:00:55.339;599620872552430208;5804.052;103
2024-09-16T19:00:55.346;599620872560105856;5811.728;110
2024-09-16T19:00:55.354;599620872567781504;5819.4033;110
2024-09-16T19:00:55.362;599620872575457280;5827.079;103
2024-09-16T19:00:55.369;599620872583132928;5834.755;101
2024-09-16T19:00:55.377;599620872590808576;5842.4307;113
2024-09-16T19:00:55.385;599620872598484352;5850.1064;108
2024-09-16T19:00:55.392;599620872606160000;5857.7817;91
2024-09-16T19:00:55.400;599620872613835648;5865.4575;94
2024-09-16T19:00:55.408;599620872621511424;5873.134;124
2024-09-16T19:00:55.415;599620872629187072;5880.809;167
2024-09-16T19:00:55.423;599620872636862848;5888.485;195
2024-09-16T19:00:55.431;599620872644538496;5896.16;174
2024-09-16T19:00:55.438;599620872652214144;5903.836;131
2024-09-16T19:00:55.446;599620872659889920;5911.512;106
2024-09-16T19:00:55.454;599620872667565568;5919.1875;98
2024-09-16T19:00:55.461;599620872675241216;5926.863;98
2024-09-16T19:00:55.469;599620872682916992;5934.5386;91
2024-09-16T19:00:55.477;599620872690592640;5942.215;77
2024-09-16T19:00:55.484;599620872698268416;5949.8906;70
2024-09-16T19:00:55.492;599620872705944064;5957.566;82
2024-09-16T19:00:55.500;599620872713619712;5965.241;91
2024-09-16T19:00:55.507;599620872721295488;5972.9175;84
2024-09-16T19:00:55.515;599620872728971136;5980.5933;65
2024-09-16T19:00:55.523;599620872736646784;5988.2686;131
2024-09-16T19:00:55.530;599620872744322560;5995.9443;464
2024-09-16T19:00:55.538;599620872751998208;6003.6196;947
2024-09-16T19:00:55.546;599620872759673856;6011.296;885
2024-09-16T19:00:55.553;599620872767349632;6018.9717;190
2024-09-16T19:00:55.561;599620872775025280;6026.647;-115
2024-09-16T19:00:55.569;599620872782701056;6034.3228;117
2024-09-16T19:00:55.576;599620872790376704;6041.9985;87
2024-09-16T19:00:55.584;599620872798052352;6049.6743;-77
2024-09-16T19:00:55.592;599620872805728128;6057.35;7
2024-09-16T19:00:55.600;599620872813403776;6065.0254;54
2024-09-16T19:00:55.607;599620872821079424;6072.7017;0
2024-09-16T19:00:55.615;599620872828755200;6080.377;32
2024-09-16T19:00:55.623;599620872836430848;6088.0527;68
2024-09-16T19:00:55.630;599620872844106624;6095.7285;49
2024-09-16T19:00:55.638;599620872851782272;6103.404;54
2024-09-16T19:00:55.646;599620872859457920;6111.08;87
2024-09-16T19:00:55.653;599620872867133696;6118.7554;108
2024-09-16T19:00:55.661;599620872874809344;6126.431;120
2024-09-16T19:00:55.669;599620872882484992;6134.107;139
2024-09-16T19:00:55.676;599620872890160768;6141.7827;164
2024-09-16T19:00:55.684;599620872897836416;6149.4585;183
2024-09-16T19:00:55.692;599620872905512139;6157.134;216
2024-09-16T19:00:55.699;599620872913187840;6164.8096;252
2024-09-16T19:00:55.707;599620872920863488;6172.486;275
2024-09-16T19:00:55.715;599620872928539264;6180.161;287
2024-09-16T19:00:55.722;599620872936214912;6187.837;289
2024-09-16T19:00:55.730;599620872943890560;6195.512;289
2024-09-16T19:00:55.738;599620872951566336;6203.188;285
2024-09-16T19:00:55.745;599620872959241984;6210.8643;273
2024-09-16T19:00:55.753;599620872966917760;6218.5396;249
2024-09-16T19:00:55.761;599620872974593408;6226.2153;212
2024-09-16T19:00:55.768;599620872982269056;6233.8906;167
2024-09-16T19:00:55.776;599620872989944832;6241.567;124
2024-09-16T19:00:55.784;599620872997620480;6249.2427;106
2024-09-16T19:00:55.791;599620873005296128;6256.918;98
2024-09-16T19:00:55.799;599620873012971904;6264.5938;84
2024-09-16T19:00:55.807;599620873020647552;6272.2695;75
2024-09-16T19:00:55.814;599620873028323328;6279.9453;80
2024-09-16T19:00:55.822;599620873035998976;6287.621;89
2024-09-16T19:00:55.830;599620873043674624;6295.2964;89
2024-09-16T19:00:55.837;599620873051350400;6302.9727;87
2024-09-16T19:00:55.845;599620873059026048;6310.648;94
2024-09-16T19:00:55.853;599620873066701696;6318.3237;94
2024-09-16T19:00:55.860;599620873074377472;6325.9995;89
2024-09-16T19:00:55.868;599620873082053120;6333.675;87
2024-09-16T19:00:55.876;599620873089728768;6341.3506;82
2024-09-16T19:00:55.884;599620873097404544;6349.0264;75
2024-09-16T19:00:55.891;599620873105080192;6356.702;82
2024-09-16T19:00:55.899;599620873112755968;6364.378;129
2024-09-16T19:00:55.907;599620873120431616;6372.0537;169
2024-09-16T19:00:55.914;599620873128107264;6379.729;150
2024-09-16T19:00:55.922;599620873135783040;6387.405;115
2024-09-16T19:00:55.930;599620873143458688;6395.0806;96
2024-09-16T19:00:55.937;599620873151134336;6402.756;84
2024-09-16T19:00:55.945;599620873158810112;6410.432;70
2024-09-16T19:00:55.953;599620873166485760;6418.1074;56
2024-09-16T19:00:55.960;599620873174161408;6425.783;56
2024-09-16T19:00:55.968;599620873181837184;6433.459;65
2024-09-16T19:00:55.976;599620873189512832;6441.135;63
2024-09-16T19:00:55.983;599620873197188608;6448.8105;58
2024-09-16T19:00:55.991;599620873204864256;6456.486;54
2024-09-16T19:00:55.999;599620873212539904;6464.1616;32
2024-09-16T19:00:56.006;599620873220215680;6471.838;65
2024-09-16T19:00:56.014;599620873227891328;6479.513;362
2024-09-16T19:00:56.022;599620873235566976;6487.189;909
2024-09-16T19:00:56.029;599620873243242752;6494.8643;1036
2024-09-16T19:00:56.037;599620873250918400;6502.5405;355
2024-09-16T19:00:56.045;599620873258594176;6510.2163;-181
2024-09-16T19:00:56.052;599620873266269824;6517.8916;-7
2024-09-16T19:00:56.060;599620873273945472;6525.5674;87
2024-09-16T19:00:56.068;599620873281621248;6533.2427;-96
2024-09-16T19:00:56.075;599620873289296896;6540.919;-80
2024-09-16T19:00:56.083;599620873296972544;6548.5947;4
2024-09-16T19:00:56.091;599620873304648320;6556.27;-35
2024-09-16T19:00:56.098;599620873312323968;6563.946;-40
2024-09-16T19:00:56.106;599620873319999616;6571.6216;4
2024-09-16T19:00:56.114;599620873327675392;6579.2974;11
2024-09-16T19:00:56.121;599620873335351040;6586.973;14
2024-09-16T19:00:56.129;599620873343026816;6594.6484;32
2024-09-16T19:00:56.137;599620873350702464;6602.3247;42
2024-09-16T19:00:56.145;599620873358378112;6610.0;61
2024-09-16T19:00:56.152;599620873366053888;6617.676;84
2024-09-16T19:00:56.160;599620873373729536;6625.3516;103
2024-09-16T19:00:56.168;599620873381405184;6633.027;131
2024-09-16T19:00:56.175;599620873389080960;6640.703;164
2024-09-16T19:00:56.183;599620873396756608;6648.3784;190
2024-09-16T19:00:56.191;599620873404432384;6656.054;214
2024-09-16T19:00:56.198;599620873412108032;6663.73;228
2024-09-16T19:00:56.206;599620873419783680;6671.406;235
2024-09-16T19:00:56.214;599620873427459456;6679.0815;233
2024-09-16T19:00:56.221;599620873435135104;6686.757;214
2024-09-16T19:00:56.229;599620873442810752;6694.4326;190
2024-09-16T19:00:56.237;599620873450486528;6702.109;176
2024-09-16T19:00:56.244;599620873458162176;6709.784;150
2024-09-16T19:00:56.252;599620873465837878;6717.46;106
2024-09-16T19:00:56.260;599620873473513472;6725.1353;70
2024-09-16T19:00:56.267;599620873481189120;6732.811;56
2024-09-16T19:00:56.275;599620873488864896;6740.487;40
2024-09-16T19:00:56.283;599620873496540544;6748.1626;18
2024-09-16T19:00:56.290;599620873504216192;6755.838;16
2024-09-16T19:00:56.298;599620873511891968;6763.5137;25
2024-09-16T19:00:56.306;599620873519567616;6771.19;28
2024-09-16T19:00:56.313;599620873527243392;6778.865;35
2024-09-16T19:00:56.321;599620873534919040;6786.541;47
2024-09-16T19:00:56.329;599620873542594688;6794.2163;49
2024-09-16T19:00:56.336;599620873550270464;6801.8926;44
2024-09-16T19:00:56.344;599620873557946112;6809.5684;49
2024-09-16T19:00:56.352;599620873565621760;6817.2437;49
2024-09-16T19:00:56.359;599620873573297536;6824.9194;40
2024-09-16T19:00:56.367;599620873580973184;6832.5947;35
2024-09-16T19:00:56.375;599620873588648960;6840.271;58
2024-09-16T19:00:56.382;599620873596324608;6847.947;113
2024-09-16T19:00:56.390;599620873604000256;6855.622;146
2024-09-16T19:00:56.398;599620873611676032;6863.298;120
2024-09-16T19:00:56.405;599620873619351680;6870.9736;70
2024-09-16T19:00:56.413;599620873627027328;6878.6494;49
2024-09-16T19:00:56.421;599620873634703104;6886.325;42
2024-09-16T19:00:56.429;599620873642378752;6894.0005;28
2024-09-16T19:00:56.436;599620873650054400;6901.6763;14
2024-09-16T19:00:56.444;599620873657730176;6909.352;18
2024-09-16T19:00:56.452;599620873665405824;6917.028;28
2024-09-16T19:00:56.459;599620873673081600;6924.7036;21
2024-09-16T19:00:56.467;599620873680757248;6932.379;21
2024-09-16T19:00:56.475;599620873688432896;6940.0547;23
2024-09-16T19:00:56.482;599620873696108672;6947.7305;-9
2024-09-16T19:00:56.490;599620873703784320;6955.4062;14
2024-09-16T19:00:56.498;599620873711459968;6963.0815;313
2024-09-16T19:00:56.505;599620873719135744;6970.758;869
2024-09-16T19:00:56.513;599620873726811392;6978.433;1029
2024-09-16T19:00:56.521;599620873734487040;6986.109;431
2024-09-16T19:00:56.528;599620873742162816;6993.7847;-70
2024-09-16T19:00:56.536;599620873749838464;7001.4604;-14
2024-09-16T19:00:56.544;599620873757514240;7009.136;-16
2024-09-16T19:00:56.551;599620873765189888;7016.8115;-131
2024-09-16T19:00:56.559;599620873772865536;7024.4873;-77
2024-09-16T19:00:56.567;599620873780541312;7032.163;-37
2024-09-16T19:00:56.574;599620873788216960;7039.839;-75
2024-09-16T19:00:56.582;599620873795892608;7047.5146;-56
2024-09-16T19:00:56.590;599620873803568384;7055.19;-21
2024-09-16T19:00:56.597;599620873811244032;7062.8657;-21
2024-09-16T19:00:56.605;599620873818919808;7070.542;-16
2024-09-16T19:00:56.613;599620873826595456;7078.2173;4
2024-09-16T19:00:56.620;599620873834271104;7085.893;21
2024-09-16T19:00:56.628;599620873841946880;7093.5684;32
2024-09-16T19:00:56.636;599620873849622528;7101.2446;56
2024-09-16T19:00:56.643;599620873857298176;7108.9204;82
2024-09-16T19:00:56.651;599620873864973952;7116.5957;106
2024-09-16T19:00:56.659;599620873872649600;7124.2715;139
2024-09-16T19:00:56.666;599620873880325248;7131.947;171
2024-09-16T19:00:56.674;599620873888001024;7139.623;186
2024-09-16T19:00:56.682;599620873895676672;7147.299;195
2024-09-16T19:00:56.689;599620873903352448;7154.974;209
2024-09-16T19:00:56.697;599620873911028096;7162.65;202
2024-09-16T19:00:56.705;599620873918703744;7170.3257;179
2024-09-16T19:00:56.713;599620873926379520;7178.0015;164
2024-09-16T19:00:56.720;599620873934055168;7185.6772;146
2024-09-16T19:00:56.728;599620873941730816;7193.3525;113
2024-09-16T19:00:56.736;599620873949406592;7201.029;82
2024-09-16T19:00:56.743;599620873957082240;7208.704;63
2024-09-16T19:00:56.751;599620873964758016;7216.38;42
2024-09-16T19:00:56.759;599620873972433664;7224.0557;23
2024-09-16T19:00:56.766;599620873980109312;7231.731;21
2024-09-16T19:00:56.774;599620873987785088;7239.407;25
2024-09-16T19:00:56.782;599620873995460736;7247.0825;23
2024-09-16T19:00:56.789;599620874003136384;7254.7583;21
2024-09-16T19:00:56.797;599620874010812160;7262.434;32
2024-09-16T19:00:56.805;599620874018487808;7270.11;47
2024-09-16T19:00:56.812;599620874026163617;7277.7856;51
